"V - RawData"
"Wavelength nm.","T%"
400.00,0.55079
401.00,0.56133
402.00,0.56511
403.00,0.57123
404.00,0.58084
405.00,0.59187
406.00,0.60351
407.00,0.61202
408.00,0.62470
409.00,0.63282
410.00,0.64853
411.00,0.65501
412.00,0.66292
413.00,0.67692
414.00,0.69043
415.00,0.69910
416.00,0.70748
417.00,0.72565
418.00,0.73698
419.00,0.74217
420.00,0.76030
421.00,0.77046
422.00,0.78145
423.00,0.79384
424.00,0.80567
425.00,0.81965
426.00,0.82433
427.00,0.83978
428.00,0.85362
429.00,0.86304
430.00,0.86839
431.00,0.87869
432.00,0.89097
433.00,0.90272
434.00,0.90688
435.00,0.91988
436.00,0.92815
437.00,0.94230
438.00,0.94828
439.00,0.95769
440.00,0.96357
441.00,0.97213
442.00,0.97916
443.00,0.99578
444.00,1.00251
445.00,1.01013
446.00,1.01976
447.00,1.02708
448.00,1.03448
449.00,1.04522
450.00,1.04651
451.00,1.04927
452.00,1.06290
453.00,1.06996
454.00,1.08078
455.00,1.08154
456.00,1.09439
457.00,1.10136
458.00,1.10520
459.00,1.11538
460.00,1.11870
461.00,1.12285
462.00,1.13036
463.00,1.14867
464.00,1.14749
465.00,1.15404
466.00,1.16297
467.00,1.16907
468.00,1.17748
469.00,1.18807
470.00,1.18680
471.00,1.19580
472.00,1.20640
473.00,1.21023
474.00,1.22327
475.00,1.22780
476.00,1.23420
477.00,1.23939
478.00,1.23755
479.00,1.24783
480.00,1.25488
481.00,1.26094
482.00,1.27616
483.00,1.28088
484.00,1.29118
485.00,1.30048
486.00,1.30667
487.00,1.30037
488.00,1.31870
489.00,1.32517
490.00,1.33333
491.00,1.33953
492.00,1.34206
493.00,1.34953
494.00,1.35959
495.00,1.36589
496.00,1.37228
497.00,1.38020
498.00,1.38656
499.00,1.39893
500.00,1.40902
501.00,1.41473
502.00,1.42083
503.00,1.42966
504.00,1.43533
505.00,1.44803
506.00,1.46079
507.00,1.46643
508.00,1.47724
509.00,1.48197
510.00,1.49821
511.00,1.51214
512.00,1.51739
513.00,1.53014
514.00,1.53115
515.00,1.56385
516.00,1.56616
517.00,1.58600
518.00,1.59403
519.00,1.61368
520.00,1.62335
521.00,1.64164
522.00,1.65253
523.00,1.66775
524.00,1.68617
525.00,1.71009
526.00,1.71813
527.00,1.74146
528.00,1.76126
529.00,1.77877
530.00,1.79827
531.00,1.81558
532.00,1.84076
533.00,1.85936
534.00,1.87319
535.00,1.90105
536.00,1.91997
537.00,1.95316
538.00,1.97157
539.00,1.99455
540.00,2.00949
541.00,2.03893
542.00,2.05018
543.00,2.07117
544.00,2.09725
545.00,2.13068
546.00,2.14616
547.00,2.16735
548.00,2.19503
549.00,2.20982
550.00,2.23266
551.00,2.25597
552.00,2.27181
553.00,2.30072
554.00,2.31896
555.00,2.33501
556.00,2.35734
557.00,2.37998
558.00,2.39602
559.00,2.41716
560.00,2.44299
561.00,2.45573
562.00,2.48635
563.00,2.49744
564.00,2.51848
565.00,2.54415
566.00,2.56269
567.00,2.57397
568.00,2.58833
569.00,2.60870
570.00,2.62223
571.00,2.64303
572.00,2.65914
573.00,2.67360
574.00,2.69289
575.00,2.71917
576.00,2.72278
577.00,2.74268
578.00,2.76509
579.00,2.77738
580.00,2.80471
581.00,2.81954
582.00,2.83924
583.00,2.84236
584.00,2.86546
585.00,2.88199
586.00,2.89868
587.00,2.91211
588.00,2.92289
589.00,2.94167
590.00,2.95563
591.00,2.97320
592.00,2.98881
593.00,3.01057
594.00,3.02193
595.00,3.04234
596.00,3.05684
597.00,3.08333
598.00,3.10321
599.00,3.11994
600.00,3.13970
601.00,3.16760
602.00,3.18738
603.00,3.22331
604.00,3.24716
605.00,3.27349
606.00,3.31709
607.00,3.34949
608.00,3.38569
609.00,3.42865
610.00,3.47869
611.00,3.51417
612.00,3.58398
613.00,3.64128
614.00,3.69662
615.00,3.77105
616.00,3.84036
617.00,3.90888
618.00,3.98603
619.00,4.08512
620.00,4.18855
621.00,4.29079
622.00,4.40756
623.00,4.52395
624.00,4.65620
625.00,4.78374
626.00,4.91702
627.00,5.06820
628.00,5.22403
629.00,5.40386
630.00,5.57975
631.00,5.76241
632.00,5.97705
633.00,6.19972
634.00,6.45184
635.00,6.69784
636.00,6.99039
637.00,7.28425
638.00,7.58613
639.00,7.92399
640.00,8.31730
641.00,8.68714
642.00,9.14182
643.00,9.57126
644.00,10.02068
645.00,10.54152
646.00,11.03415
647.00,11.60096
648.00,12.12993
649.00,12.74763
650.00,13.38436
651.00,13.99967
652.00,14.61356
653.00,15.29187
654.00,15.88922
655.00,16.61195
656.00,17.28164
657.00,17.95797
658.00,18.70850
659.00,19.37460
660.00,20.06886
661.00,20.73535
662.00,21.47160
663.00,22.12277
664.00,22.82591
665.00,23.47572
666.00,24.10948
667.00,24.69933
668.00,25.33929
669.00,25.85343
670.00,26.44847
671.00,26.97632
672.00,27.48032
673.00,27.98325
674.00,28.48044
675.00,28.90836
676.00,29.31509
677.00,29.77246
678.00,30.12660
679.00,30.56206
680.00,31.01493
681.00,31.29219
682.00,31.66769
683.00,32.01286
684.00,32.32909
685.00,32.59720
686.00,32.85522
687.00,33.12576
688.00,33.43602
689.00,33.62371
690.00,33.84825
691.00,34.14069
692.00,34.27628
693.00,34.43338
694.00,34.66249
695.00,34.88016
696.00,35.06999
697.00,35.23639
698.00,35.35319
699.00,35.43171
700.00,35.68043
701.00,35.83717
702.00,36.01926
703.00,36.12297
704.00,36.24834
705.00,36.33164
706.00,36.47271
707.00,36.50859
708.00,36.69173
709.00,36.71362
710.00,36.95278
711.00,37.07839
712.00,37.19557
713.00,37.23860
714.00,37.28577
715.00,37.42788
716.00,37.45790
717.00,37.58311
718.00,37.60252
719.00,37.75719
720.00,37.75801
721.00,37.91486
722.00,37.93229
723.00,38.18640
724.00,38.07828
725.00,38.17403
726.00,38.26922
727.00,38.36232
728.00,38.42864
729.00,38.44699
730.00,38.52391
731.00,38.56619
732.00,38.74672
733.00,38.69871
734.00,38.86205
735.00,39.02188
736.00,39.03445
737.00,38.98489
738.00,39.10795
739.00,39.13855
740.00,39.15597
741.00,39.22005
742.00,39.38621
743.00,39.31287
744.00,39.36744
745.00,39.56265
746.00,39.67429
747.00,39.74016
748.00,39.70958
749.00,39.84084
750.00,39.75331
751.00,40.04650
752.00,40.06968
753.00,39.98408
754.00,40.08275
755.00,40.18126
756.00,40.24259
757.00,40.20985
758.00,40.30437
759.00,40.49092
760.00,40.38284
761.00,40.45260
762.00,40.58470
763.00,40.62859
764.00,40.67508
765.00,40.78683
766.00,40.87854
767.00,40.62894
768.00,40.81412
769.00,40.77129
770.00,40.93333
771.00,40.86553
772.00,41.10702
773.00,41.07513
774.00,41.13999
775.00,41.05371
776.00,41.25849
777.00,41.27958
778.00,41.34238
779.00,41.37349
780.00,41.38088
781.00,41.71866
782.00,41.52417
783.00,41.54290
784.00,41.63682
785.00,41.72879
786.00,41.70089
787.00,41.68857
788.00,41.79456
789.00,41.70887
790.00,42.00059
791.00,41.98017
792.00,41.89502
793.00,41.84355
794.00,42.05528
795.00,42.16746
796.00,42.18493
797.00,42.09230
798.00,42.25474
799.00,42.26705
800.00,42.12164
801.00,42.31001
802.00,42.24885
803.00,42.53261
804.00,42.43838
805.00,42.63511
806.00,42.73010
807.00,42.43230
808.00,42.56757
809.00,42.58779
810.00,42.56570
811.00,42.76628
812.00,42.63059
813.00,42.69875
814.00,42.60522
815.00,42.74312
816.00,42.94995
817.00,42.89391
818.00,42.82320
819.00,42.94731
820.00,43.04304
821.00,42.95112
822.00,43.11689
823.00,42.87049
824.00,43.19848
825.00,43.37994
826.00,42.99243
827.00,43.13836
828.00,43.12710
829.00,43.01946
830.00,43.14471
831.00,43.16759
832.00,43.07174
833.00,43.31010
834.00,43.67092
835.00,42.84371
836.00,42.98805
837.00,43.16889
838.00,43.80982
839.00,43.41137
840.00,43.58481
841.00,43.61745
842.00,42.99589
843.00,43.51051
844.00,43.32693
845.00,43.32471
846.00,42.85731
847.00,43.64015
848.00,43.90294
849.00,42.67741
850.00,43.48859
851.00,43.74359
852.00,42.76112
853.00,43.00999
854.00,43.60332
855.00,43.02073
856.00,43.70041
857.00,42.45239
858.00,41.40692
859.00,43.31483
860.00,41.52804
861.00,42.80411
862.00,43.25848
863.00,43.94902
864.00,43.57973
865.00,42.93590
866.00,44.63878
867.00,42.72342
868.00,43.96724
869.00,42.66184
870.00,41.86245
871.00,43.79574
872.00,43.42043
873.00,44.52385
874.00,41.34200
875.00,42.02890
876.00,44.80120
877.00,41.33802
878.00,39.59934
879.00,44.34490
880.00,41.56779
881.00,45.21655
882.00,40.53241
883.00,40.51042
884.00,45.53949
885.00,41.84588
886.00,43.88028
887.00,42.40105
888.00,47.82815
889.00,44.34358
890.00,47.76330
891.00,44.64176
892.00,38.75579
893.00,36.63606
894.00,42.30408
895.00,35.97112
896.00,38.35288
897.00,39.07720
898.00,38.79366
899.00,39.79272
900.00,48.33392
