"II - RawData"
"Wavelength nm.","T%"
400.00,0.01148
401.00,0.01103
402.00,0.01074
403.00,0.01101
404.00,0.01201
405.00,0.01264
406.00,0.01275
407.00,0.01075
408.00,0.01239
409.00,0.01264
410.00,0.01240
411.00,0.01214
412.00,0.01242
413.00,0.01093
414.00,0.01097
415.00,0.01116
416.00,0.00985
417.00,0.00954
418.00,0.00956
419.00,0.00895
420.00,0.00863
421.00,0.00962
422.00,0.01033
423.00,0.01168
424.00,0.01364
425.00,0.01736
426.00,0.02406
427.00,0.03127
428.00,0.04232
429.00,0.05459
430.00,0.06987
431.00,0.08373
432.00,0.09543
433.00,0.10873
434.00,0.11878
435.00,0.12602
436.00,0.12815
437.00,0.13356
438.00,0.13499
439.00,0.13928
440.00,0.14209
441.00,0.14448
442.00,0.14891
443.00,0.14981
444.00,0.15516
445.00,0.15470
446.00,0.15878
447.00,0.16112
448.00,0.16245
449.00,0.16658
450.00,0.16789
451.00,0.17201
452.00,0.17514
453.00,0.17698
454.00,0.17964
455.00,0.18347
456.00,0.18808
457.00,0.18960
458.00,0.19596
459.00,0.19695
460.00,0.20038
461.00,0.20493
462.00,0.20892
463.00,0.21272
464.00,0.21518
465.00,0.22114
466.00,0.22268
467.00,0.22976
468.00,0.23227
469.00,0.23746
470.00,0.23835
471.00,0.24515
472.00,0.24866
473.00,0.24942
474.00,0.25485
475.00,0.25722
476.00,0.26466
477.00,0.26483
478.00,0.27200
479.00,0.27534
480.00,0.27813
481.00,0.28045
482.00,0.28702
483.00,0.29047
484.00,0.29181
485.00,0.30116
486.00,0.30452
487.00,0.30619
488.00,0.31252
489.00,0.31751
490.00,0.31993
491.00,0.32739
492.00,0.32952
493.00,0.33638
494.00,0.34063
495.00,0.34232
496.00,0.34866
497.00,0.35158
498.00,0.35798
499.00,0.36387
500.00,0.36943
501.00,0.37045
502.00,0.37312
503.00,0.37920
504.00,0.38811
505.00,0.38876
506.00,0.39634
507.00,0.40023
508.00,0.40524
509.00,0.40761
510.00,0.41749
511.00,0.41982
512.00,0.42254
513.00,0.43079
514.00,0.43181
515.00,0.43636
516.00,0.44375
517.00,0.44475
518.00,0.44983
519.00,0.45562
520.00,0.46023
521.00,0.46569
522.00,0.46246
523.00,0.46794
524.00,0.47191
525.00,0.47665
526.00,0.48144
527.00,0.48324
528.00,0.48495
529.00,0.49098
530.00,0.49659
531.00,0.49792
532.00,0.50161
533.00,0.50472
534.00,0.51251
535.00,0.50967
536.00,0.51716
537.00,0.52271
538.00,0.52144
539.00,0.52494
540.00,0.52741
541.00,0.52925
542.00,0.53445
543.00,0.53112
544.00,0.53844
545.00,0.53668
546.00,0.53804
547.00,0.53894
548.00,0.54455
549.00,0.54747
550.00,0.54484
551.00,0.54945
552.00,0.55057
553.00,0.55336
554.00,0.55822
555.00,0.55865
556.00,0.55976
557.00,0.56026
558.00,0.56781
559.00,0.57165
560.00,0.57223
561.00,0.57303
562.00,0.58184
563.00,0.58082
564.00,0.58930
565.00,0.59191
566.00,0.59880
567.00,0.60189
568.00,0.60500
569.00,0.61442
570.00,0.62393
571.00,0.62314
572.00,0.63970
573.00,0.64309
574.00,0.65250
575.00,0.66744
576.00,0.67496
577.00,0.68698
578.00,0.70271
579.00,0.71996
580.00,0.72950
581.00,0.74974
582.00,0.76554
583.00,0.78744
584.00,0.80891
585.00,0.83011
586.00,0.85515
587.00,0.88278
588.00,0.90914
589.00,0.93927
590.00,0.97656
591.00,1.00980
592.00,1.04489
593.00,1.08488
594.00,1.14044
595.00,1.19006
596.00,1.23668
597.00,1.29895
598.00,1.36082
599.00,1.42514
600.00,1.49436
601.00,1.55571
602.00,1.65578
603.00,1.73516
604.00,1.83827
605.00,1.93292
606.00,2.04407
607.00,2.15303
608.00,2.26415
609.00,2.39631
610.00,2.52506
611.00,2.67316
612.00,2.82922
613.00,2.98944
614.00,3.15719
615.00,3.33578
616.00,3.54230
617.00,3.74555
618.00,3.96384
619.00,4.20399
620.00,4.45142
621.00,4.69168
622.00,4.97693
623.00,5.23584
624.00,5.51746
625.00,5.82762
626.00,6.13037
627.00,6.44037
628.00,6.77157
629.00,7.10294
630.00,7.45846
631.00,7.79231
632.00,8.18674
633.00,8.56062
634.00,8.96446
635.00,9.35387
636.00,9.79379
637.00,10.22223
638.00,10.64664
639.00,11.12198
640.00,11.55955
641.00,12.02980
642.00,12.52785
643.00,12.95688
644.00,13.46887
645.00,13.90058
646.00,14.37448
647.00,14.86461
648.00,15.36611
649.00,15.83251
650.00,16.33711
651.00,16.86020
652.00,17.29759
653.00,17.77306
654.00,18.25773
655.00,18.73860
656.00,19.21651
657.00,19.67602
658.00,20.20261
659.00,20.65772
660.00,21.15358
661.00,21.62672
662.00,22.12585
663.00,22.69468
664.00,23.15755
665.00,23.63808
666.00,24.06113
667.00,24.57970
668.00,25.10940
669.00,25.47562
670.00,25.99088
671.00,26.37618
672.00,26.83399
673.00,27.32480
674.00,27.75340
675.00,28.20498
676.00,28.63021
677.00,29.08481
678.00,29.58227
679.00,30.01123
680.00,30.41066
681.00,30.85577
682.00,31.24712
683.00,31.68518
684.00,32.10973
685.00,32.49820
686.00,32.91590
687.00,33.34917
688.00,33.68010
689.00,34.02541
690.00,34.41321
691.00,34.79219
692.00,35.11373
693.00,35.47100
694.00,35.79832
695.00,36.17429
696.00,36.39357
697.00,36.64841
698.00,36.95810
699.00,37.25021
700.00,37.52641
701.00,37.76894
702.00,38.05477
703.00,38.31316
704.00,38.41532
705.00,38.69059
706.00,38.95420
707.00,39.22618
708.00,39.31087
709.00,39.54340
710.00,39.67351
711.00,39.84694
712.00,39.96689
713.00,40.20866
714.00,40.33663
715.00,40.41676
716.00,40.55150
717.00,40.70777
718.00,40.82583
719.00,40.99099
720.00,40.97264
721.00,41.11341
722.00,41.27332
723.00,41.29389
724.00,41.48827
725.00,41.53958
726.00,41.63874
727.00,41.77872
728.00,41.83494
729.00,41.97487
730.00,41.87569
731.00,42.00367
732.00,42.11327
733.00,42.11314
734.00,42.31337
735.00,42.30478
736.00,42.34580
737.00,42.42803
738.00,42.74444
739.00,42.75550
740.00,42.68455
741.00,42.76627
742.00,42.89358
743.00,42.87387
744.00,42.94826
745.00,43.09577
746.00,43.27067
747.00,43.13057
748.00,43.29334
749.00,43.24757
750.00,43.57525
751.00,43.34057
752.00,43.72081
753.00,43.77749
754.00,43.90894
755.00,43.86940
756.00,43.96201
757.00,43.92918
758.00,44.28092
759.00,44.28627
760.00,44.40021
761.00,44.53241
762.00,44.46350
763.00,44.51286
764.00,44.73341
765.00,44.71223
766.00,44.79967
767.00,44.98276
768.00,44.98788
769.00,44.93244
770.00,45.22646
771.00,45.41561
772.00,45.22427
773.00,45.33903
774.00,45.38620
775.00,45.60968
776.00,45.83236
777.00,45.61143
778.00,45.70028
779.00,45.87692
780.00,45.97982
781.00,46.13506
782.00,45.91655
783.00,46.15881
784.00,46.26246
785.00,46.50222
786.00,46.33702
787.00,46.54763
788.00,46.60301
789.00,46.46290
790.00,46.60985
791.00,46.72779
792.00,46.66824
793.00,46.79867
794.00,46.95477
795.00,46.94587
796.00,47.08206
797.00,47.07091
798.00,47.22055
799.00,47.18660
800.00,47.62425
801.00,47.21258
802.00,47.40480
803.00,47.55328
804.00,47.51449
805.00,47.41568
806.00,47.59997
807.00,47.61630
808.00,47.80129
809.00,47.76546
810.00,47.51107
811.00,47.78055
812.00,48.29117
813.00,47.85081
814.00,48.34794
815.00,48.45583
816.00,48.07223
817.00,48.16357
818.00,48.05167
819.00,48.37293
820.00,48.57750
821.00,48.44723
822.00,48.28976
823.00,48.83580
824.00,48.55637
825.00,48.73325
826.00,48.66801
827.00,48.80716
828.00,49.25602
829.00,49.27484
830.00,48.85167
831.00,49.34388
832.00,48.85496
833.00,49.43279
834.00,49.24201
835.00,49.12987
836.00,49.70962
837.00,48.75611
838.00,49.25216
839.00,49.47304
840.00,48.90732
841.00,49.66656
842.00,49.63661
843.00,49.61915
844.00,49.92646
845.00,49.66504
846.00,49.04496
847.00,50.95344
848.00,49.62335
849.00,49.76689
850.00,49.73288
851.00,49.66823
852.00,49.51923
853.00,50.41607
854.00,50.57743
855.00,51.59513
856.00,52.11533
857.00,50.39246
858.00,50.60221
859.00,51.17272
860.00,51.91168
861.00,48.16362
862.00,49.10722
863.00,50.98631
864.00,50.06526
865.00,49.55629
866.00,50.34511
867.00,51.28263
868.00,49.69020
869.00,47.30464
870.00,51.25999
871.00,53.97549
872.00,49.24825
873.00,50.94602
874.00,50.11113
875.00,51.99511
876.00,46.70631
877.00,53.00103
878.00,54.13065
879.00,47.34142
880.00,53.53559
881.00,52.08479
882.00,50.68762
883.00,52.27079
884.00,44.40407
885.00,47.12709
886.00,51.32417
887.00,50.02125
888.00,47.01399
889.00,50.53061
890.00,50.19269
891.00,44.38834
892.00,48.84161
893.00,48.42272
894.00,48.68790
895.00,45.61462
896.00,51.51640
897.00,52.16992
898.00,52.70728
899.00,49.21259
900.00,51.34677
