"Or3I - RawData"
"Wavelength nm.","T%"
400.00,0.04573
401.00,0.04841
402.00,0.04870
403.00,0.05057
404.00,0.04884
405.00,0.05010
406.00,0.05086
407.00,0.05053
408.00,0.05059
409.00,0.05182
410.00,0.05175
411.00,0.05019
412.00,0.04952
413.00,0.04981
414.00,0.04864
415.00,0.04825
416.00,0.04725
417.00,0.04527
418.00,0.04337
419.00,0.04279
420.00,0.04251
421.00,0.04460
422.00,0.04664
423.00,0.04667
424.00,0.04734
425.00,0.05317
426.00,0.06389
427.00,0.07605
428.00,0.08968
429.00,0.10731
430.00,0.12929
431.00,0.15501
432.00,0.17932
433.00,0.19929
434.00,0.21119
435.00,0.22506
436.00,0.23336
437.00,0.24184
438.00,0.25085
439.00,0.25249
440.00,0.25839
441.00,0.26137
442.00,0.27033
443.00,0.27571
444.00,0.28017
445.00,0.28343
446.00,0.28647
447.00,0.29298
448.00,0.29830
449.00,0.30011
450.00,0.30564
451.00,0.31162
452.00,0.31644
453.00,0.31965
454.00,0.32428
455.00,0.33460
456.00,0.33444
457.00,0.34365
458.00,0.34640
459.00,0.34806
460.00,0.35559
461.00,0.36040
462.00,0.36721
463.00,0.37053
464.00,0.38048
465.00,0.37813
466.00,0.38801
467.00,0.39763
468.00,0.39463
469.00,0.40221
470.00,0.40904
471.00,0.42109
472.00,0.41764
473.00,0.42663
474.00,0.43282
475.00,0.43789
476.00,0.44350
477.00,0.44703
478.00,0.45274
479.00,0.46055
480.00,0.46463
481.00,0.47457
482.00,0.47588
483.00,0.48555
484.00,0.48959
485.00,0.49404
486.00,0.50328
487.00,0.51111
488.00,0.51880
489.00,0.52023
490.00,0.52649
491.00,0.53210
492.00,0.53770
493.00,0.54567
494.00,0.55082
495.00,0.55639
496.00,0.56528
497.00,0.56682
498.00,0.57509
499.00,0.58150
500.00,0.58621
501.00,0.59549
502.00,0.60309
503.00,0.61072
504.00,0.61365
505.00,0.61831
506.00,0.62614
507.00,0.63556
508.00,0.64102
509.00,0.64537
510.00,0.64853
511.00,0.65394
512.00,0.66367
513.00,0.66860
514.00,0.67610
515.00,0.67982
516.00,0.68309
517.00,0.69289
518.00,0.69892
519.00,0.70214
520.00,0.71021
521.00,0.70625
522.00,0.71791
523.00,0.72773
524.00,0.73303
525.00,0.73562
526.00,0.73599
527.00,0.74266
528.00,0.74912
529.00,0.74547
530.00,0.75497
531.00,0.76272
532.00,0.76132
533.00,0.76954
534.00,0.77138
535.00,0.77564
536.00,0.78126
537.00,0.78490
538.00,0.78593
539.00,0.78723
540.00,0.79526
541.00,0.79456
542.00,0.79638
543.00,0.79905
544.00,0.80073
545.00,0.80148
546.00,0.80491
547.00,0.81087
548.00,0.81033
549.00,0.80912
550.00,0.81574
551.00,0.81687
552.00,0.82226
553.00,0.82011
554.00,0.82557
555.00,0.82324
556.00,0.82995
557.00,0.83276
558.00,0.83587
559.00,0.84109
560.00,0.84171
561.00,0.84393
562.00,0.85526
563.00,0.85475
564.00,0.86327
565.00,0.86857
566.00,0.86732
567.00,0.88179
568.00,0.88503
569.00,0.88931
570.00,0.90413
571.00,0.90902
572.00,0.91804
573.00,0.92903
574.00,0.94604
575.00,0.95633
576.00,0.96780
577.00,0.97785
578.00,0.99105
579.00,1.01227
580.00,1.02914
581.00,1.04308
582.00,1.07211
583.00,1.09280
584.00,1.11486
585.00,1.14635
586.00,1.16897
587.00,1.20107
588.00,1.22905
589.00,1.26334
590.00,1.29742
591.00,1.34454
592.00,1.39093
593.00,1.43617
594.00,1.48375
595.00,1.53532
596.00,1.60190
597.00,1.66140
598.00,1.73592
599.00,1.80556
600.00,1.88326
601.00,1.97016
602.00,2.06099
603.00,2.14103
604.00,2.24444
605.00,2.36027
606.00,2.47408
607.00,2.59998
608.00,2.71596
609.00,2.85172
610.00,3.00075
611.00,3.14066
612.00,3.30813
613.00,3.47149
614.00,3.65640
615.00,3.84549
616.00,4.04706
617.00,4.26270
618.00,4.47372
619.00,4.71842
620.00,4.97867
621.00,5.21977
622.00,5.50254
623.00,5.76795
624.00,6.05338
625.00,6.34618
626.00,6.64781
627.00,6.95976
628.00,7.29272
629.00,7.63381
630.00,7.99091
631.00,8.30025
632.00,8.70021
633.00,9.07034
634.00,9.44731
635.00,9.83772
636.00,10.26266
637.00,10.66916
638.00,11.10943
639.00,11.53517
640.00,11.97759
641.00,12.43064
642.00,12.88050
643.00,13.34002
644.00,13.79684
645.00,14.25370
646.00,14.73183
647.00,15.20260
648.00,15.67203
649.00,16.13418
650.00,16.62893
651.00,17.10282
652.00,17.58950
653.00,18.03419
654.00,18.47239
655.00,18.94663
656.00,19.46649
657.00,19.93057
658.00,20.43878
659.00,20.92799
660.00,21.36574
661.00,21.90906
662.00,22.43429
663.00,22.87536
664.00,23.36241
665.00,23.86484
666.00,24.28942
667.00,24.77437
668.00,25.27532
669.00,25.68314
670.00,26.16072
671.00,26.56563
672.00,27.01783
673.00,27.46404
674.00,27.85357
675.00,28.27583
676.00,28.68538
677.00,29.15430
678.00,29.55930
679.00,29.90742
680.00,30.28518
681.00,30.70502
682.00,31.05438
683.00,31.44233
684.00,31.86623
685.00,32.20246
686.00,32.57374
687.00,32.82291
688.00,33.16071
689.00,33.51237
690.00,33.76213
691.00,34.04607
692.00,34.30980
693.00,34.57026
694.00,34.88276
695.00,35.21250
696.00,35.42475
697.00,35.65537
698.00,35.87770
699.00,36.07423
700.00,36.35089
701.00,36.47051
702.00,36.71852
703.00,36.91660
704.00,37.02435
705.00,37.26191
706.00,37.47788
707.00,37.73424
708.00,37.79980
709.00,37.95433
710.00,38.16186
711.00,38.23364
712.00,38.48926
713.00,38.57230
714.00,38.78596
715.00,38.90925
716.00,39.02905
717.00,39.19780
718.00,39.36343
719.00,39.44605
720.00,39.51108
721.00,39.66819
722.00,39.78117
723.00,40.00512
724.00,40.22153
725.00,40.26318
726.00,40.28492
727.00,40.55992
728.00,40.64981
729.00,40.73043
730.00,40.94242
731.00,40.87613
732.00,41.11969
733.00,41.31766
734.00,41.41141
735.00,41.54020
736.00,41.70843
737.00,41.71444
738.00,41.92814
739.00,41.95324
740.00,42.12040
741.00,42.30712
742.00,42.42010
743.00,42.61261
744.00,42.62524
745.00,42.71993
746.00,43.01946
747.00,43.04385
748.00,43.17261
749.00,43.21866
750.00,43.50871
751.00,43.55853
752.00,44.01603
753.00,43.98743
754.00,43.90382
755.00,44.05353
756.00,44.15246
757.00,44.49648
758.00,44.51267
759.00,44.45871
760.00,44.63366
761.00,44.82871
762.00,45.02911
763.00,45.15372
764.00,45.23685
765.00,45.49286
766.00,45.52626
767.00,45.67863
768.00,45.63368
769.00,45.90844
770.00,46.18419
771.00,46.07589
772.00,46.01139
773.00,46.06885
774.00,46.47975
775.00,46.47327
776.00,46.25409
777.00,46.57562
778.00,46.68536
779.00,46.82819
780.00,46.92116
781.00,47.10529
782.00,47.09366
783.00,47.24739
784.00,47.32841
785.00,47.47914
786.00,47.68165
787.00,47.56075
788.00,47.58720
789.00,47.42907
790.00,47.74177
791.00,47.69111
792.00,48.05294
793.00,48.02236
794.00,47.90208
795.00,48.28302
796.00,48.41617
797.00,48.39468
798.00,48.54397
799.00,48.48843
800.00,48.43440
801.00,48.56173
802.00,48.70287
803.00,48.94029
804.00,48.82684
805.00,48.73337
806.00,48.77795
807.00,49.10537
808.00,48.73973
809.00,49.00169
810.00,49.09478
811.00,49.09134
812.00,49.51691
813.00,49.29477
814.00,49.43721
815.00,49.63049
816.00,49.50878
817.00,49.35769
818.00,49.35307
819.00,49.84464
820.00,49.90559
821.00,49.68084
822.00,49.90180
823.00,49.66359
824.00,49.78532
825.00,49.98955
826.00,50.03141
827.00,50.10173
828.00,49.89431
829.00,50.58489
830.00,50.44307
831.00,50.13406
832.00,50.05313
833.00,50.51234
834.00,50.27515
835.00,50.37788
836.00,50.03173
837.00,50.27197
838.00,50.36110
839.00,50.47439
840.00,50.54305
841.00,50.29962
842.00,50.69714
843.00,50.01082
844.00,50.39642
845.00,50.62661
846.00,50.35238
847.00,50.78520
848.00,50.26670
849.00,50.94969
850.00,50.36376
851.00,50.93924
852.00,50.89998
853.00,49.67186
854.00,48.74442
855.00,50.44429
856.00,49.32162
857.00,50.71977
858.00,50.54548
859.00,50.17295
860.00,50.45627
861.00,50.68747
862.00,50.54336
863.00,50.86074
864.00,50.74290
865.00,51.78442
866.00,50.09879
867.00,49.01695
868.00,48.19475
869.00,50.85034
870.00,51.12679
871.00,50.74590
872.00,51.36757
873.00,51.67844
874.00,48.57423
875.00,52.67885
876.00,50.79181
877.00,54.95459
878.00,50.40686
879.00,51.37321
880.00,47.60063
881.00,47.06787
882.00,50.80805
883.00,48.53050
884.00,47.78975
885.00,49.97475
886.00,48.40607
887.00,46.56938
888.00,56.10862
889.00,48.61538
890.00,48.80851
891.00,52.81979
892.00,46.58085
893.00,53.92615
894.00,44.69460
895.00,50.85349
896.00,47.93898
897.00,50.10862
898.00,48.95168
899.00,51.91727
900.00,42.82442
