"VII - RawData"
"Wavelength nm.","T%"
400.00,0.08492
401.00,0.08607
402.00,0.09195
403.00,0.09489
404.00,0.09721
405.00,0.09942
406.00,0.10465
407.00,0.10833
408.00,0.11243
409.00,0.11529
410.00,0.11908
411.00,0.12506
412.00,0.12917
413.00,0.13216
414.00,0.13589
415.00,0.14382
416.00,0.14807
417.00,0.15457
418.00,0.15577
419.00,0.16462
420.00,0.16611
421.00,0.17442
422.00,0.18184
423.00,0.18478
424.00,0.19107
425.00,0.19566
426.00,0.20085
427.00,0.20590
428.00,0.21443
429.00,0.22111
430.00,0.22789
431.00,0.23306
432.00,0.23971
433.00,0.24998
434.00,0.26129
435.00,0.27278
436.00,0.28429
437.00,0.29597
438.00,0.31085
439.00,0.32699
440.00,0.33601
441.00,0.34883
442.00,0.36167
443.00,0.37700
444.00,0.38411
445.00,0.39984
446.00,0.40979
447.00,0.42280
448.00,0.43425
449.00,0.43708
450.00,0.45722
451.00,0.46573
452.00,0.48052
453.00,0.49348
454.00,0.50212
455.00,0.51645
456.00,0.52791
457.00,0.53956
458.00,0.55861
459.00,0.56877
460.00,0.58705
461.00,0.60131
462.00,0.61401
463.00,0.62861
464.00,0.64289
465.00,0.66339
466.00,0.67598
467.00,0.69751
468.00,0.71372
469.00,0.73013
470.00,0.74595
471.00,0.76687
472.00,0.78931
473.00,0.80461
474.00,0.82621
475.00,0.84103
476.00,0.85725
477.00,0.87489
478.00,0.90305
479.00,0.92398
480.00,0.94147
481.00,0.96126
482.00,0.99198
483.00,1.00818
484.00,1.03089
485.00,1.05835
486.00,1.07707
487.00,1.10878
488.00,1.12878
489.00,1.14960
490.00,1.17712
491.00,1.19696
492.00,1.22402
493.00,1.25712
494.00,1.28386
495.00,1.30354
496.00,1.33322
497.00,1.35281
498.00,1.38438
499.00,1.41265
500.00,1.44207
501.00,1.47429
502.00,1.50249
503.00,1.53086
504.00,1.55463
505.00,1.58493
506.00,1.62104
507.00,1.65152
508.00,1.67918
509.00,1.71475
510.00,1.74910
511.00,1.77091
512.00,1.80716
513.00,1.83990
514.00,1.86971
515.00,1.91021
516.00,1.93179
517.00,1.96695
518.00,1.99805
519.00,2.03045
520.00,2.07351
521.00,2.09646
522.00,2.13644
523.00,2.16004
524.00,2.21207
525.00,2.23183
526.00,2.27075
527.00,2.30679
528.00,2.34580
529.00,2.37459
530.00,2.41777
531.00,2.45387
532.00,2.48754
533.00,2.52597
534.00,2.56417
535.00,2.60234
536.00,2.63265
537.00,2.66287
538.00,2.70720
539.00,2.74525
540.00,2.77294
541.00,2.80315
542.00,2.83679
543.00,2.86442
544.00,2.91313
545.00,2.93911
546.00,2.97502
547.00,3.01283
548.00,3.05067
549.00,3.07934
550.00,3.11109
551.00,3.14878
552.00,3.18078
553.00,3.20898
554.00,3.23932
555.00,3.28060
556.00,3.29941
557.00,3.33664
558.00,3.36839
559.00,3.39247
560.00,3.43510
561.00,3.47691
562.00,3.51060
563.00,3.53313
564.00,3.57170
565.00,3.59820
566.00,3.64104
567.00,3.69201
568.00,3.71550
569.00,3.75496
570.00,3.80061
571.00,3.85024
572.00,3.88907
573.00,3.93720
574.00,3.99099
575.00,4.05146
576.00,4.11062
577.00,4.16102
578.00,4.21294
579.00,4.27755
580.00,4.33900
581.00,4.40370
582.00,4.49363
583.00,4.56314
584.00,4.63495
585.00,4.72999
586.00,4.82525
587.00,4.91484
588.00,5.00975
589.00,5.11244
590.00,5.21746
591.00,5.34894
592.00,5.45786
593.00,5.60929
594.00,5.75377
595.00,5.90672
596.00,6.07816
597.00,6.25713
598.00,6.43099
599.00,6.63010
600.00,6.84976
601.00,7.06270
602.00,7.29432
603.00,7.55049
604.00,7.78333
605.00,8.07326
606.00,8.34418
607.00,8.65697
608.00,8.95883
609.00,9.28507
610.00,9.63041
611.00,9.97277
612.00,10.35051
613.00,10.73785
614.00,11.13972
615.00,11.57545
616.00,12.02139
617.00,12.49348
618.00,12.94774
619.00,13.46706
620.00,13.99345
621.00,14.50575
622.00,15.03426
623.00,15.61188
624.00,16.15767
625.00,16.73363
626.00,17.32913
627.00,17.94245
628.00,18.51865
629.00,19.16786
630.00,19.75364
631.00,20.45396
632.00,21.10358
633.00,21.76611
634.00,22.51219
635.00,23.25713
636.00,23.96192
637.00,24.72762
638.00,25.46810
639.00,26.24556
640.00,27.05478
641.00,27.78482
642.00,28.67703
643.00,29.40526
644.00,30.26111
645.00,31.01836
646.00,31.82418
647.00,32.63520
648.00,33.40530
649.00,34.21621
650.00,35.03440
651.00,35.82903
652.00,36.57176
653.00,37.25469
654.00,37.97440
655.00,38.64545
656.00,39.33302
657.00,40.00618
658.00,40.66590
659.00,41.34811
660.00,41.94405
661.00,42.62677
662.00,43.22142
663.00,43.72738
664.00,44.25897
665.00,44.85942
666.00,45.33944
667.00,45.77060
668.00,46.22802
669.00,46.64220
670.00,47.22129
671.00,47.45617
672.00,47.91760
673.00,48.29870
674.00,48.63510
675.00,48.92172
676.00,49.36444
677.00,49.62154
678.00,49.94881
679.00,50.24776
680.00,50.55404
681.00,50.72919
682.00,50.94560
683.00,51.31994
684.00,51.57389
685.00,51.67608
686.00,51.95574
687.00,52.11192
688.00,52.36934
689.00,52.56587
690.00,52.86817
691.00,52.94425
692.00,53.18341
693.00,53.19755
694.00,53.40330
695.00,53.59495
696.00,53.77381
697.00,53.80711
698.00,54.00839
699.00,54.00227
700.00,54.25350
701.00,54.21594
702.00,54.46326
703.00,54.69506
704.00,54.80451
705.00,54.83625
706.00,54.95269
707.00,55.04012
708.00,55.04804
709.00,55.21533
710.00,55.31063
711.00,55.43672
712.00,55.43395
713.00,55.58494
714.00,55.72852
715.00,55.65794
716.00,55.83996
717.00,55.92315
718.00,56.01601
719.00,56.10495
720.00,56.19664
721.00,56.30354
722.00,56.40607
723.00,56.49800
724.00,56.56192
725.00,56.76219
726.00,56.62294
727.00,56.84816
728.00,56.88705
729.00,57.04588
730.00,57.08584
731.00,57.14189
732.00,57.25045
733.00,57.20679
734.00,57.23987
735.00,57.44624
736.00,57.39515
737.00,57.56944
738.00,57.53360
739.00,57.64709
740.00,57.69977
741.00,57.80332
742.00,57.98414
743.00,57.96229
744.00,58.06831
745.00,58.03347
746.00,58.14744
747.00,58.35699
748.00,58.19468
749.00,58.34075
750.00,58.44768
751.00,58.52454
752.00,58.45030
753.00,58.69118
754.00,58.74665
755.00,58.75482
756.00,58.89417
757.00,58.83058
758.00,58.97589
759.00,59.04299
760.00,59.30572
761.00,59.17559
762.00,59.10638
763.00,59.24146
764.00,59.49143
765.00,59.45054
766.00,59.54996
767.00,59.49966
768.00,59.45615
769.00,59.51745
770.00,59.75806
771.00,59.94400
772.00,59.74444
773.00,59.90945
774.00,60.12085
775.00,59.99606
776.00,60.19018
777.00,60.21904
778.00,60.09200
779.00,60.21850
780.00,60.26574
781.00,60.22461
782.00,60.25041
783.00,60.46805
784.00,60.41607
785.00,60.65848
786.00,60.44623
787.00,60.58952
788.00,60.56522
789.00,60.63125
790.00,60.79465
791.00,60.80922
792.00,60.77015
793.00,60.67672
794.00,60.57293
795.00,60.76693
796.00,60.83940
797.00,60.87774
798.00,61.28531
799.00,60.74007
800.00,61.34419
801.00,61.03841
802.00,61.14658
803.00,60.66012
804.00,60.66425
805.00,61.08170
806.00,61.05375
807.00,61.26853
808.00,61.28722
809.00,61.43272
810.00,61.41851
811.00,61.51118
812.00,61.77928
813.00,61.28243
814.00,61.34804
815.00,61.71052
816.00,61.47158
817.00,61.62169
818.00,61.53889
819.00,61.66462
820.00,61.67678
821.00,61.92436
822.00,61.66358
823.00,61.47026
824.00,61.91181
825.00,61.97851
826.00,61.88067
827.00,61.88388
828.00,61.88341
829.00,62.01059
830.00,61.46892
831.00,62.09722
832.00,61.87824
833.00,61.84990
834.00,61.90820
835.00,61.88530
836.00,62.02317
837.00,61.68422
838.00,62.43349
839.00,62.28102
840.00,61.96297
841.00,62.10844
842.00,62.54512
843.00,61.74727
844.00,62.47661
845.00,62.70575
846.00,62.12941
847.00,62.39865
848.00,62.86154
849.00,62.36088
850.00,61.76724
851.00,63.54047
852.00,61.82980
853.00,61.31893
854.00,61.67930
855.00,62.70391
856.00,63.01663
857.00,61.25645
858.00,62.86753
859.00,62.22342
860.00,62.31618
861.00,63.61605
862.00,61.89975
863.00,64.69293
864.00,61.05315
865.00,61.48267
866.00,63.84804
867.00,62.31641
868.00,63.32256
869.00,59.99463
870.00,67.25460
871.00,62.67294
872.00,62.95466
873.00,62.83045
874.00,60.88577
875.00,60.29449
876.00,61.21854
877.00,61.73921
878.00,62.13896
879.00,66.01871
880.00,61.52136
881.00,57.80230
882.00,62.15087
883.00,63.38823
884.00,57.52806
885.00,65.40496
886.00,64.39497
887.00,58.51095
888.00,68.19306
889.00,61.82812
890.00,66.22214
891.00,60.28118
892.00,60.44061
893.00,57.46366
894.00,65.22481
895.00,61.59369
896.00,59.06254
897.00,64.48616
898.00,61.62803
899.00,59.53158
900.00,64.71498
