"srGlass215 - RawData"
"Wavelength nm.","R%"
400.00,14.12139
401.00,14.09891
402.00,14.08571
403.00,14.11825
404.00,14.12316
405.00,14.08341
406.00,14.14307
407.00,14.15975
408.00,14.18237
409.00,14.18187
410.00,14.17906
411.00,14.18671
412.00,14.22891
413.00,14.30228
414.00,14.26556
415.00,14.32596
416.00,14.29874
417.00,14.37937
418.00,14.42377
419.00,14.48145
420.00,14.51035
421.00,14.58213
422.00,14.59903
423.00,14.67658
424.00,14.73117
425.00,14.72312
426.00,14.75968
427.00,14.71951
428.00,14.73877
429.00,14.69211
430.00,14.60572
431.00,14.59148
432.00,14.53160
433.00,14.49494
434.00,14.46747
435.00,14.49793
436.00,14.45818
437.00,14.45220
438.00,14.44033
439.00,14.44808
440.00,14.44913
441.00,14.49133
442.00,14.50518
443.00,14.51099
444.00,14.54449
445.00,14.54195
446.00,14.55642
447.00,14.57196
448.00,14.61365
449.00,14.61021
450.00,14.62415
451.00,14.67322
452.00,14.68764
453.00,14.70243
454.00,14.74400
455.00,14.76869
456.00,14.82351
457.00,14.79570
458.00,14.85001
459.00,14.86237
460.00,14.89759
461.00,14.95531
462.00,14.95165
463.00,14.99897
464.00,15.02306
465.00,15.03482
466.00,15.03612
467.00,15.11708
468.00,15.15086
469.00,15.13535
470.00,15.17710
471.00,15.21411
472.00,15.25742
473.00,15.26695
474.00,15.30004
475.00,15.34278
476.00,15.36960
477.00,15.38613
478.00,15.44427
479.00,15.45948
480.00,15.50672
481.00,15.54635
482.00,15.59326
483.00,15.61978
484.00,15.64730
485.00,15.70801
486.00,15.74177
487.00,15.78436
488.00,15.82848
489.00,15.84854
490.00,15.93831
491.00,15.91295
492.00,15.97878
493.00,16.00550
494.00,16.05480
495.00,16.10751
496.00,16.13883
497.00,16.17880
498.00,16.23349
499.00,16.25969
500.00,16.33632
501.00,16.36114
502.00,16.42802
503.00,16.48044
504.00,16.51997
505.00,16.56431
506.00,16.60867
507.00,16.66429
508.00,16.70397
509.00,16.74662
510.00,16.78473
511.00,16.84070
512.00,16.88299
513.00,16.94827
514.00,16.99975
515.00,17.01842
516.00,17.05843
517.00,17.10367
518.00,17.19271
519.00,17.22696
520.00,17.31795
521.00,17.36204
522.00,17.40272
523.00,17.41947
524.00,17.46533
525.00,17.51025
526.00,17.59616
527.00,17.66528
528.00,17.70509
529.00,17.76426
530.00,17.77990
531.00,17.87519
532.00,17.90253
533.00,18.00060
534.00,18.03765
535.00,18.12930
536.00,18.16932
537.00,18.24500
538.00,18.27334
539.00,18.33899
540.00,18.40442
541.00,18.45244
542.00,18.50989
543.00,18.55379
544.00,18.65481
545.00,18.72017
546.00,18.77007
547.00,18.84847
548.00,18.92906
549.00,19.01265
550.00,19.05186
551.00,19.15318
552.00,19.21575
553.00,19.28411
554.00,19.33780
555.00,19.41099
556.00,19.53072
557.00,19.53773
558.00,19.61307
559.00,19.71883
560.00,19.81597
561.00,19.90749
562.00,19.96036
563.00,20.04815
564.00,20.10722
565.00,20.18305
566.00,20.26119
567.00,20.35221
568.00,20.40028
569.00,20.50303
570.00,20.57971
571.00,20.65377
572.00,20.73473
573.00,20.79740
574.00,20.87494
575.00,20.95214
576.00,21.08707
577.00,21.12814
578.00,21.21898
579.00,21.29520
580.00,21.35784
581.00,21.44027
582.00,21.52992
583.00,21.64342
584.00,21.67984
585.00,21.75824
586.00,21.81509
587.00,21.94347
588.00,21.98957
589.00,22.07048
590.00,22.11923
591.00,22.22845
592.00,22.29184
593.00,22.37674
594.00,22.44227
595.00,22.51029
596.00,22.60644
597.00,22.67675
598.00,22.73361
599.00,22.78177
600.00,22.87652
601.00,22.91829
602.00,22.98797
603.00,23.07172
604.00,23.11610
605.00,23.20811
606.00,23.26120
607.00,23.33776
608.00,23.41031
609.00,23.43254
610.00,23.55497
611.00,23.58273
612.00,23.62859
613.00,23.72013
614.00,23.72813
615.00,23.80199
616.00,23.88756
617.00,23.96535
618.00,24.00140
619.00,24.11301
620.00,24.15956
621.00,24.17683
622.00,24.26169
623.00,24.37948
624.00,24.43126
625.00,24.53440
626.00,24.58072
627.00,24.70101
628.00,24.75598
629.00,24.81575
630.00,24.93675
631.00,25.00432
632.00,25.12855
633.00,25.20442
634.00,25.28512
635.00,25.36657
636.00,25.54753
637.00,25.60766
638.00,25.68374
639.00,25.83226
640.00,25.96792
641.00,26.05814
642.00,26.20987
643.00,26.29765
644.00,26.48153
645.00,26.59242
646.00,26.70611
647.00,26.87488
648.00,27.01217
649.00,27.08504
650.00,27.30748
651.00,27.40146
652.00,27.58122
653.00,27.71841
654.00,27.83829
655.00,27.96655
656.00,28.17844
657.00,28.25146
658.00,28.36207
659.00,28.59083
660.00,28.68168
661.00,28.85486
662.00,28.98770
663.00,29.20827
664.00,29.30175
665.00,29.50522
666.00,29.69502
667.00,29.79771
668.00,29.97515
669.00,30.12567
670.00,30.26852
671.00,30.51548
672.00,30.58363
673.00,30.75926
674.00,30.84804
675.00,31.12002
676.00,31.21346
677.00,31.41060
678.00,31.60644
679.00,31.71958
680.00,31.88517
681.00,32.13471
682.00,32.37675
683.00,32.54252
684.00,32.72009
685.00,32.87162
686.00,33.10333
687.00,33.30330
688.00,33.55474
689.00,33.67037
690.00,33.89710
691.00,34.06514
692.00,34.23891
693.00,34.49780
694.00,34.73808
695.00,35.03015
696.00,35.03958
697.00,35.32269
698.00,35.56992
699.00,35.76213
700.00,35.90733
701.00,36.18629
702.00,36.36844
703.00,36.61247
704.00,36.80134
705.00,36.95352
706.00,37.31411
707.00,37.40820
708.00,37.67604
709.00,37.97573
710.00,38.08018
711.00,38.37638
712.00,38.59574
713.00,38.69924
714.00,38.99165
715.00,39.04709
716.00,39.29289
717.00,39.41464
718.00,39.72495
719.00,39.83321
720.00,39.95301
721.00,40.19156
722.00,40.42919
723.00,40.61688
724.00,40.83433
725.00,41.00831
726.00,41.05543
727.00,41.34459
728.00,41.53414
729.00,41.67037
730.00,41.87465
731.00,42.02776
732.00,42.14516
733.00,42.30698
734.00,42.54265
735.00,42.77079
736.00,42.69524
737.00,42.88540
738.00,43.14720
739.00,43.27062
740.00,43.44216
741.00,43.39316
742.00,43.55021
743.00,43.72174
744.00,44.04764
745.00,44.14752
746.00,44.14698
747.00,44.30399
748.00,44.39657
749.00,44.71469
750.00,44.87704
751.00,44.98533
752.00,45.09427
753.00,45.20736
754.00,45.22027
755.00,45.36970
756.00,45.43547
757.00,45.56229
758.00,45.78894
759.00,45.94033
760.00,45.94778
761.00,46.05555
762.00,46.15551
763.00,46.22888
764.00,46.43973
765.00,46.39929
766.00,46.49618
767.00,46.72381
768.00,46.77578
769.00,46.73828
770.00,47.26058
771.00,47.26024
772.00,47.40082
773.00,47.45117
774.00,47.44678
775.00,47.47839
776.00,47.61685
777.00,47.92245
778.00,48.01727
779.00,47.94148
780.00,47.87878
781.00,48.17086
782.00,48.31603
783.00,48.46517
784.00,48.49443
785.00,48.24285
786.00,48.73765
787.00,48.77335
788.00,48.85062
789.00,49.05391
790.00,48.97566
791.00,49.43809
792.00,49.55633
793.00,49.12058
794.00,49.28052
795.00,49.38139
796.00,49.55430
797.00,49.75907
798.00,49.91424
799.00,49.79344
800.00,50.02065
801.00,50.20082
802.00,50.01747
803.00,50.29543
804.00,49.91298
805.00,50.33144
806.00,50.18772
807.00,50.45078
808.00,50.38760
809.00,50.45130
810.00,50.52617
811.00,50.45102
812.00,50.61845
813.00,50.90626
814.00,50.95065
815.00,50.64704
816.00,50.85325
817.00,50.60053
818.00,50.78703
819.00,50.51324
820.00,50.65050
821.00,50.52912
822.00,50.56379
823.00,50.75523
824.00,50.87345
825.00,51.06831
826.00,50.90074
827.00,50.82330
828.00,51.14402
829.00,50.96806
830.00,50.81555
831.00,50.94928
832.00,50.71844
833.00,50.90386
834.00,50.41268
835.00,50.59960
836.00,50.52183
837.00,50.54724
838.00,50.91103
839.00,50.84059
840.00,50.15545
841.00,50.16086
842.00,50.63488
843.00,49.46958
844.00,51.19153
845.00,48.97398
846.00,50.33897
847.00,49.35897
848.00,49.24437
849.00,49.47747
850.00,48.81025
851.00,49.34894
852.00,50.40199
853.00,48.72446
854.00,49.26928
855.00,47.27291
856.00,50.00260
857.00,47.80403
858.00,48.71093
859.00,48.43768
860.00,47.97064
861.00,46.88999
862.00,47.95306
863.00,46.73288
864.00,47.75907
865.00,45.33953
866.00,47.22950
867.00,46.18653
868.00,49.86129
869.00,42.10664
870.00,46.53489
871.00,48.65974
872.00,42.71454
873.00,47.14561
874.00,46.21001
875.00,44.80650
876.00,44.47308
877.00,46.37335
878.00,49.09438
879.00,48.41928
880.00,48.31524
881.00,44.56207
882.00,46.15919
883.00,43.22706
884.00,45.88979
885.00,42.48485
886.00,51.13932
887.00,43.39046
888.00,41.09544
889.00,40.41056
890.00,43.51669
891.00,40.11311
892.00,42.85631
893.00,47.30476
894.00,36.63729
895.00,42.54221
896.00,37.85663
897.00,48.22153
898.00,44.46266
899.00,45.54645
900.00,36.33998
