"Glass2116 - RawData"
"Wavelength nm.","T%"
400.00,0.24265
401.00,0.24352
402.00,0.24394
403.00,0.24027
404.00,0.24014
405.00,0.24094
406.00,0.24017
407.00,0.24534
408.00,0.23697
409.00,0.23887
410.00,0.24018
411.00,0.24151
412.00,0.23966
413.00,0.23795
414.00,0.23975
415.00,0.24034
416.00,0.23919
417.00,0.24317
418.00,0.24440
419.00,0.24515
420.00,0.24578
421.00,0.24131
422.00,0.24809
423.00,0.24407
424.00,0.24223
425.00,0.24405
426.00,0.24354
427.00,0.24635
428.00,0.24683
429.00,0.24253
430.00,0.24603
431.00,0.24324
432.00,0.24225
433.00,0.24553
434.00,0.24506
435.00,0.24567
436.00,0.24453
437.00,0.24850
438.00,0.24520
439.00,0.24711
440.00,0.24627
441.00,0.24512
442.00,0.24374
443.00,0.24803
444.00,0.24812
445.00,0.24390
446.00,0.24570
447.00,0.24137
448.00,0.24527
449.00,0.24449
450.00,0.24553
451.00,0.24755
452.00,0.24520
453.00,0.24234
454.00,0.24514
455.00,0.24360
456.00,0.24418
457.00,0.24350
458.00,0.24532
459.00,0.24589
460.00,0.24769
461.00,0.24226
462.00,0.24557
463.00,0.24435
464.00,0.24345
465.00,0.24315
466.00,0.24304
467.00,0.24634
468.00,0.24544
469.00,0.24320
470.00,0.24446
471.00,0.24372
472.00,0.24445
473.00,0.24340
474.00,0.24262
475.00,0.24114
476.00,0.24013
477.00,0.24262
478.00,0.24340
479.00,0.24044
480.00,0.24439
481.00,0.24158
482.00,0.24246
483.00,0.24345
484.00,0.24081
485.00,0.24005
486.00,0.24120
487.00,0.24024
488.00,0.24159
489.00,0.24034
490.00,0.23942
491.00,0.23885
492.00,0.23928
493.00,0.23897
494.00,0.23987
495.00,0.24170
496.00,0.23837
497.00,0.24076
498.00,0.24249
499.00,0.24319
500.00,0.24187
501.00,0.24037
502.00,0.23822
503.00,0.24144
504.00,0.24038
505.00,0.23876
506.00,0.23993
507.00,0.23767
508.00,0.24011
509.00,0.23609
510.00,0.23955
511.00,0.23776
512.00,0.24032
513.00,0.24007
514.00,0.24021
515.00,0.23641
516.00,0.23975
517.00,0.24005
518.00,0.23952
519.00,0.24109
520.00,0.24012
521.00,0.23945
522.00,0.24009
523.00,0.24228
524.00,0.23847
525.00,0.23803
526.00,0.23754
527.00,0.23512
528.00,0.23895
529.00,0.23926
530.00,0.23967
531.00,0.23456
532.00,0.24037
533.00,0.23691
534.00,0.23773
535.00,0.23695
536.00,0.23832
537.00,0.24042
538.00,0.24014
539.00,0.23863
540.00,0.23941
541.00,0.23827
542.00,0.23713
543.00,0.23761
544.00,0.23863
545.00,0.23755
546.00,0.23660
547.00,0.24002
548.00,0.23810
549.00,0.23886
550.00,0.23879
551.00,0.23785
552.00,0.23644
553.00,0.23905
554.00,0.23836
555.00,0.23863
556.00,0.23600
557.00,0.23628
558.00,0.23507
559.00,0.23542
560.00,0.23638
561.00,0.23742
562.00,0.23507
563.00,0.23661
564.00,0.23559
565.00,0.23516
566.00,0.23458
567.00,0.23638
568.00,0.23478
569.00,0.23613
570.00,0.23465
571.00,0.23563
572.00,0.23689
573.00,0.23757
574.00,0.23641
575.00,0.23460
576.00,0.23472
577.00,0.24033
578.00,0.23876
579.00,0.23996
580.00,0.23899
581.00,0.24164
582.00,0.24238
583.00,0.24062
584.00,0.24283
585.00,0.24318
586.00,0.24305
587.00,0.24743
588.00,0.24596
589.00,0.24903
590.00,0.24753
591.00,0.25202
592.00,0.25332
593.00,0.25560
594.00,0.26154
595.00,0.26315
596.00,0.26728
597.00,0.27084
598.00,0.27188
599.00,0.27975
600.00,0.28392
601.00,0.29248
602.00,0.30033
603.00,0.30604
604.00,0.31312
605.00,0.32304
606.00,0.33727
607.00,0.34873
608.00,0.36098
609.00,0.37778
610.00,0.39125
611.00,0.40764
612.00,0.42736
613.00,0.45366
614.00,0.47768
615.00,0.50535
616.00,0.53887
617.00,0.57082
618.00,0.60931
619.00,0.65458
620.00,0.70315
621.00,0.75423
622.00,0.80472
623.00,0.87170
624.00,0.94217
625.00,1.01822
626.00,1.08701
627.00,1.17212
628.00,1.26088
629.00,1.36387
630.00,1.46208
631.00,1.57389
632.00,1.69365
633.00,1.82082
634.00,1.95114
635.00,2.09960
636.00,2.25240
637.00,2.40394
638.00,2.56395
639.00,2.75398
640.00,2.94523
641.00,3.13495
642.00,3.32782
643.00,3.56003
644.00,3.75696
645.00,3.99011
646.00,4.21434
647.00,4.45886
648.00,4.70622
649.00,4.97484
650.00,5.21805
651.00,5.48043
652.00,5.76844
653.00,6.05009
654.00,6.32010
655.00,6.59183
656.00,6.93260
657.00,7.22712
658.00,7.55422
659.00,7.87109
660.00,8.19540
661.00,8.50144
662.00,8.87925
663.00,9.23214
664.00,9.59942
665.00,9.94689
666.00,10.30079
667.00,10.64010
668.00,11.00436
669.00,11.37526
670.00,11.73593
671.00,12.07569
672.00,12.40316
673.00,12.78347
674.00,13.08254
675.00,13.47427
676.00,13.82027
677.00,14.15667
678.00,14.48871
679.00,14.82499
680.00,15.22050
681.00,15.53059
682.00,15.88256
683.00,16.19741
684.00,16.57417
685.00,16.86258
686.00,17.15862
687.00,17.44218
688.00,17.80102
689.00,18.05233
690.00,18.33807
691.00,18.60236
692.00,18.83378
693.00,19.09820
694.00,19.45289
695.00,19.60087
696.00,19.92018
697.00,20.10364
698.00,20.31523
699.00,20.55719
700.00,20.78483
701.00,20.96415
702.00,21.14327
703.00,21.34485
704.00,21.55748
705.00,21.74180
706.00,21.87492
707.00,22.13618
708.00,22.26947
709.00,22.43904
710.00,22.55803
711.00,22.77767
712.00,22.88322
713.00,22.97581
714.00,23.15707
715.00,23.22301
716.00,23.42727
717.00,23.54582
718.00,23.72741
719.00,23.76578
720.00,23.99508
721.00,24.01665
722.00,24.21704
723.00,24.32712
724.00,24.41747
725.00,24.46572
726.00,24.58886
727.00,24.74605
728.00,24.71641
729.00,24.81417
730.00,25.01388
731.00,25.07339
732.00,25.06504
733.00,25.22598
734.00,25.32380
735.00,25.38970
736.00,25.48157
737.00,25.50665
738.00,25.65336
739.00,25.71746
740.00,25.71220
741.00,25.80932
742.00,25.81955
743.00,26.03710
744.00,25.97727
745.00,25.96806
746.00,26.12652
747.00,26.18706
748.00,26.30680
749.00,26.31851
750.00,26.40013
751.00,26.53715
752.00,26.42907
753.00,26.54684
754.00,26.50455
755.00,26.67144
756.00,26.70939
757.00,26.79099
758.00,26.87691
759.00,26.86984
760.00,26.89608
761.00,26.93093
762.00,27.01737
763.00,26.99650
764.00,26.96887
765.00,27.09041
766.00,27.23571
767.00,27.19504
768.00,27.28084
769.00,27.21312
770.00,27.21402
771.00,27.41147
772.00,27.41324
773.00,27.42750
774.00,27.37748
775.00,27.46054
776.00,27.70458
777.00,27.69387
778.00,27.68336
779.00,27.62955
780.00,27.57247
781.00,27.77900
782.00,27.86548
783.00,27.86580
784.00,28.00006
785.00,27.96096
786.00,27.98193
787.00,27.89567
788.00,28.18298
789.00,27.99808
790.00,28.08842
791.00,28.19646
792.00,28.06654
793.00,28.21615
794.00,28.41392
795.00,28.25925
796.00,28.20922
797.00,28.15086
798.00,28.38921
799.00,28.36892
800.00,28.34591
801.00,28.42710
802.00,28.53556
803.00,28.38093
804.00,28.46864
805.00,28.41635
806.00,28.56377
807.00,28.68603
808.00,28.56483
809.00,28.58293
810.00,28.64078
811.00,28.74006
812.00,28.88025
813.00,28.88356
814.00,28.79588
815.00,29.10498
816.00,29.01148
817.00,28.83792
818.00,28.87080
819.00,28.92673
820.00,29.11151
821.00,29.16042
822.00,28.98169
823.00,29.15986
824.00,28.97276
825.00,29.19509
826.00,29.33048
827.00,29.19274
828.00,29.01779
829.00,29.13853
830.00,29.31055
831.00,29.44968
832.00,29.51295
833.00,29.31114
834.00,29.36755
835.00,29.57909
836.00,29.33586
837.00,29.59210
838.00,29.67918
839.00,29.52197
840.00,29.56057
841.00,29.69295
842.00,29.46025
843.00,29.53216
844.00,30.15245
845.00,29.64854
846.00,29.73027
847.00,29.18009
848.00,30.04632
849.00,30.08485
850.00,29.72305
851.00,29.47572
852.00,30.27075
853.00,29.88286
854.00,30.29881
855.00,29.37795
856.00,29.81736
857.00,29.76297
858.00,29.48390
859.00,30.07347
860.00,29.46264
861.00,29.70893
862.00,30.59923
863.00,29.06086
864.00,30.63044
865.00,30.81819
866.00,29.85522
867.00,31.31426
868.00,30.75692
869.00,30.88795
870.00,30.33257
871.00,30.12894
872.00,29.84940
873.00,29.09592
874.00,28.21496
875.00,29.10525
876.00,32.21530
877.00,30.32742
878.00,31.15938
879.00,31.12856
880.00,28.36436
881.00,30.20239
882.00,30.23513
883.00,32.07527
884.00,30.64549
885.00,28.84545
886.00,31.88813
887.00,33.25242
888.00,29.73445
889.00,29.20972
890.00,29.11648
891.00,29.93832
892.00,29.93011
893.00,32.21934
894.00,30.86971
895.00,25.42446
896.00,30.63147
897.00,33.76305
898.00,26.30331
899.00,28.96411
900.00,27.34745
