"Ag3BiI6_I - RawData"
"Wavelength nm.","T%"
400.00,0.11170
401.00,0.11257
402.00,0.11388
403.00,0.11732
404.00,0.12108
405.00,0.11848
406.00,0.12265
407.00,0.12473
408.00,0.12634
409.00,0.12626
410.00,0.12878
411.00,0.12682
412.00,0.13086
413.00,0.12591
414.00,0.13003
415.00,0.12954
416.00,0.12730
417.00,0.12562
418.00,0.12272
419.00,0.12167
420.00,0.12275
421.00,0.12348
422.00,0.12468
423.00,0.13104
424.00,0.13878
425.00,0.15180
426.00,0.16572
427.00,0.18596
428.00,0.20807
429.00,0.24336
430.00,0.27809
431.00,0.31848
432.00,0.35608
433.00,0.40010
434.00,0.43166
435.00,0.45613
436.00,0.47233
437.00,0.48354
438.00,0.49929
439.00,0.50608
440.00,0.51659
441.00,0.53038
442.00,0.53697
443.00,0.54216
444.00,0.55134
445.00,0.55754
446.00,0.56298
447.00,0.56912
448.00,0.57770
449.00,0.58669
450.00,0.59716
451.00,0.60155
452.00,0.60890
453.00,0.61916
454.00,0.62409
455.00,0.62674
456.00,0.64204
457.00,0.65332
458.00,0.65294
459.00,0.66532
460.00,0.67326
461.00,0.68072
462.00,0.68619
463.00,0.69078
464.00,0.69827
465.00,0.70720
466.00,0.70705
467.00,0.72257
468.00,0.72817
469.00,0.72377
470.00,0.73321
471.00,0.74293
472.00,0.74623
473.00,0.75467
474.00,0.76203
475.00,0.77023
476.00,0.77172
477.00,0.77733
478.00,0.78568
479.00,0.79619
480.00,0.80140
481.00,0.80818
482.00,0.81436
483.00,0.82088
484.00,0.82577
485.00,0.83983
486.00,0.84424
487.00,0.84788
488.00,0.85387
489.00,0.86208
490.00,0.86416
491.00,0.87467
492.00,0.88331
493.00,0.88935
494.00,0.89816
495.00,0.90261
496.00,0.91146
497.00,0.91552
498.00,0.92557
499.00,0.93111
500.00,0.94364
501.00,0.95563
502.00,0.95345
503.00,0.96802
504.00,0.97364
505.00,0.98675
506.00,1.00182
507.00,1.00287
508.00,1.02005
509.00,1.02539
510.00,1.03556
511.00,1.04597
512.00,1.05849
513.00,1.06692
514.00,1.07596
515.00,1.08540
516.00,1.09930
517.00,1.11064
518.00,1.11681
519.00,1.13055
520.00,1.14170
521.00,1.15047
522.00,1.16081
523.00,1.17610
524.00,1.18516
525.00,1.19729
526.00,1.20183
527.00,1.21497
528.00,1.23392
529.00,1.23588
530.00,1.24047
531.00,1.25329
532.00,1.27020
533.00,1.27594
534.00,1.28454
535.00,1.29456
536.00,1.30480
537.00,1.33922
538.00,1.34112
539.00,1.35260
540.00,1.35424
541.00,1.36327
542.00,1.37646
543.00,1.38276
544.00,1.39858
545.00,1.39555
546.00,1.40564
547.00,1.41329
548.00,1.42036
549.00,1.43126
550.00,1.43387
551.00,1.44125
552.00,1.45171
553.00,1.45438
554.00,1.45870
555.00,1.47146
556.00,1.47870
557.00,1.48241
558.00,1.49186
559.00,1.49598
560.00,1.51115
561.00,1.51880
562.00,1.51979
563.00,1.53935
564.00,1.54279
565.00,1.55035
566.00,1.55520
567.00,1.57102
568.00,1.58073
569.00,1.59778
570.00,1.60188
571.00,1.62506
572.00,1.64001
573.00,1.66005
574.00,1.67704
575.00,1.69774
576.00,1.72179
577.00,1.73733
578.00,1.76644
579.00,1.79854
580.00,1.82084
581.00,1.85229
582.00,1.87423
583.00,1.91744
584.00,1.93958
585.00,1.97998
586.00,2.01892
587.00,2.05491
588.00,2.10133
589.00,2.14230
590.00,2.17924
591.00,2.23775
592.00,2.28349
593.00,2.33562
594.00,2.39929
595.00,2.45607
596.00,2.53820
597.00,2.60191
598.00,2.67915
599.00,2.75726
600.00,2.84481
601.00,2.92908
602.00,3.02835
603.00,3.14426
604.00,3.24513
605.00,3.35631
606.00,3.48988
607.00,3.60147
608.00,3.72517
609.00,3.86179
610.00,4.00090
611.00,4.17638
612.00,4.33584
613.00,4.49844
614.00,4.69568
615.00,4.87923
616.00,5.09442
617.00,5.29859
618.00,5.52157
619.00,5.76738
620.00,6.03193
621.00,6.28702
622.00,6.55610
623.00,6.82224
624.00,7.10633
625.00,7.42455
626.00,7.72544
627.00,8.02465
628.00,8.36595
629.00,8.71190
630.00,9.02138
631.00,9.40596
632.00,9.77542
633.00,10.15173
634.00,10.57327
635.00,10.96013
636.00,11.39483
637.00,11.79522
638.00,12.25794
639.00,12.69972
640.00,13.19201
641.00,13.64858
642.00,14.09351
643.00,14.58428
644.00,15.07578
645.00,15.53667
646.00,16.03204
647.00,16.54988
648.00,17.01554
649.00,17.55268
650.00,18.07293
651.00,18.57585
652.00,19.06615
653.00,19.58087
654.00,20.08234
655.00,20.61691
656.00,21.11220
657.00,21.64024
658.00,22.15815
659.00,22.65799
660.00,23.18456
661.00,23.70033
662.00,24.30048
663.00,24.85235
664.00,25.37005
665.00,25.84963
666.00,26.35962
667.00,26.86339
668.00,27.40330
669.00,27.86793
670.00,28.34466
671.00,28.85108
672.00,29.24358
673.00,29.72403
674.00,30.18920
675.00,30.68517
676.00,31.07454
677.00,31.56505
678.00,31.97415
679.00,32.43444
680.00,32.73155
681.00,33.19547
682.00,33.62809
683.00,34.01848
684.00,34.40498
685.00,34.82586
686.00,35.10478
687.00,35.45628
688.00,35.81166
689.00,36.17676
690.00,36.43239
691.00,36.78939
692.00,37.09816
693.00,37.35379
694.00,37.66291
695.00,37.94737
696.00,38.15506
697.00,38.35559
698.00,38.56979
699.00,38.80808
700.00,39.17895
701.00,39.45104
702.00,39.54273
703.00,39.84000
704.00,39.99123
705.00,40.24819
706.00,40.50708
707.00,40.66285
708.00,40.81827
709.00,41.06297
710.00,41.13930
711.00,41.35678
712.00,41.57571
713.00,41.75229
714.00,41.87119
715.00,42.09765
716.00,42.19229
717.00,42.46088
718.00,42.59254
719.00,42.80311
720.00,42.91385
721.00,43.12799
722.00,43.34912
723.00,43.39205
724.00,43.69101
725.00,43.88455
726.00,43.93094
727.00,44.15139
728.00,44.26045
729.00,44.48535
730.00,44.60711
731.00,44.69599
732.00,45.03097
733.00,45.25440
734.00,45.28588
735.00,45.56450
736.00,45.72172
737.00,45.76750
738.00,45.81411
739.00,45.97162
740.00,46.18663
741.00,46.28922
742.00,46.69109
743.00,46.66432
744.00,46.88027
745.00,47.09398
746.00,47.20325
747.00,47.26965
748.00,47.36605
749.00,47.63581
750.00,47.67753
751.00,47.85384
752.00,48.04140
753.00,48.09323
754.00,48.11803
755.00,48.47403
756.00,48.24265
757.00,48.61353
758.00,48.61197
759.00,48.83367
760.00,48.76527
761.00,49.17692
762.00,49.22967
763.00,49.19649
764.00,49.49615
765.00,49.48553
766.00,49.64496
767.00,49.61435
768.00,49.71833
769.00,49.82972
770.00,50.03987
771.00,49.94772
772.00,50.21217
773.00,50.24824
774.00,50.35989
775.00,50.39633
776.00,50.41375
777.00,50.32105
778.00,50.73540
779.00,50.74784
780.00,50.69462
781.00,50.69513
782.00,50.72716
783.00,50.96545
784.00,50.94908
785.00,51.13207
786.00,51.10633
787.00,51.12152
788.00,51.23207
789.00,51.58771
790.00,51.32307
791.00,51.24140
792.00,51.35351
793.00,51.37256
794.00,51.37846
795.00,51.49960
796.00,51.40540
797.00,51.41051
798.00,51.67754
799.00,51.65753
800.00,51.83624
801.00,51.57995
802.00,51.43396
803.00,51.62934
804.00,51.87494
805.00,51.59044
806.00,51.70686
807.00,51.85824
808.00,51.92170
809.00,51.75669
810.00,51.68841
811.00,51.71794
812.00,51.98261
813.00,51.77473
814.00,51.79540
815.00,51.85109
816.00,51.97590
817.00,51.44303
818.00,51.92576
819.00,51.95134
820.00,52.13383
821.00,51.82053
822.00,51.86642
823.00,51.91654
824.00,51.80153
825.00,51.98153
826.00,51.60145
827.00,52.24727
828.00,51.74716
829.00,51.29192
830.00,51.84087
831.00,51.72756
832.00,51.60464
833.00,51.23584
834.00,51.57675
835.00,51.27187
836.00,51.60480
837.00,51.21733
838.00,51.40312
839.00,51.51654
840.00,51.40635
841.00,50.79020
842.00,51.01326
843.00,51.12549
844.00,51.04440
845.00,51.31009
846.00,51.03121
847.00,50.84669
848.00,49.84974
849.00,50.84113
850.00,50.43491
851.00,51.09736
852.00,51.23352
853.00,50.48968
854.00,50.14437
855.00,51.26365
856.00,50.33342
857.00,50.03073
858.00,49.52947
859.00,51.20574
860.00,49.91504
861.00,49.47737
862.00,51.62871
863.00,50.74933
864.00,50.54352
865.00,49.30697
866.00,51.76810
867.00,48.00710
868.00,49.24408
869.00,50.07575
870.00,46.81994
871.00,51.27183
872.00,52.08057
873.00,47.90511
874.00,50.70537
875.00,46.56169
876.00,46.91051
877.00,47.13623
878.00,46.22912
879.00,50.46858
880.00,48.34693
881.00,48.68115
882.00,47.34593
883.00,47.52668
884.00,47.27320
885.00,46.53413
886.00,51.31239
887.00,56.91103
888.00,55.35812
889.00,52.51971
890.00,48.78126
891.00,51.24057
892.00,43.88818
893.00,44.25160
894.00,44.20095
895.00,49.01805
896.00,53.02761
897.00,46.49791
898.00,48.59543
899.00,45.27687
900.00,56.61576
