"SR_Glass215 - RawData"
"Wavelength nm.","R%"
400.00,18.55085
401.00,18.50830
402.00,18.54544
403.00,18.50028
404.00,18.49613
405.00,18.56619
406.00,18.62610
407.00,18.56679
408.00,18.57898
409.00,18.64282
410.00,18.58643
411.00,18.64804
412.00,18.66642
413.00,18.65148
414.00,18.64887
415.00,18.67942
416.00,18.69525
417.00,18.73191
418.00,18.71407
419.00,18.77777
420.00,18.76658
421.00,18.85570
422.00,18.88568
423.00,18.93027
424.00,18.95302
425.00,19.02378
426.00,19.01769
427.00,19.01702
428.00,18.99616
429.00,19.02099
430.00,18.99556
431.00,19.04402
432.00,19.05916
433.00,18.99701
434.00,19.05288
435.00,19.05814
436.00,19.07301
437.00,19.08598
438.00,19.11220
439.00,19.17348
440.00,19.19229
441.00,19.13879
442.00,19.17459
443.00,19.26579
444.00,19.24841
445.00,19.27741
446.00,19.28007
447.00,19.31542
448.00,19.33374
449.00,19.37725
450.00,19.41856
451.00,19.40548
452.00,19.46522
453.00,19.43778
454.00,19.45459
455.00,19.46334
456.00,19.53865
457.00,19.53383
458.00,19.59042
459.00,19.61154
460.00,19.64907
461.00,19.63942
462.00,19.71565
463.00,19.72412
464.00,19.70997
465.00,19.74647
466.00,19.78066
467.00,19.79080
468.00,19.83403
469.00,19.85441
470.00,19.87843
471.00,19.86957
472.00,19.96368
473.00,19.99218
474.00,19.96128
475.00,19.98790
476.00,20.05272
477.00,20.07338
478.00,20.09512
479.00,20.12870
480.00,20.17972
481.00,20.18490
482.00,20.21432
483.00,20.24130
484.00,20.30237
485.00,20.34016
486.00,20.35664
487.00,20.40349
488.00,20.45225
489.00,20.45638
490.00,20.49547
491.00,20.55744
492.00,20.57766
493.00,20.62364
494.00,20.66704
495.00,20.68493
496.00,20.71451
497.00,20.76898
498.00,20.79890
499.00,20.85361
500.00,20.89118
501.00,20.93711
502.00,20.97480
503.00,21.01596
504.00,21.05882
505.00,21.10945
506.00,21.16834
507.00,21.18234
508.00,21.21909
509.00,21.24487
510.00,21.33108
511.00,21.35763
512.00,21.40962
513.00,21.46068
514.00,21.48839
515.00,21.53114
516.00,21.56444
517.00,21.62565
518.00,21.67362
519.00,21.70607
520.00,21.76303
521.00,21.79842
522.00,21.81827
523.00,21.90972
524.00,21.94375
525.00,22.00194
526.00,22.06739
527.00,22.08432
528.00,22.18690
529.00,22.20339
530.00,22.25255
531.00,22.32021
532.00,22.38575
533.00,22.46085
534.00,22.51920
535.00,22.54216
536.00,22.63636
537.00,22.68189
538.00,22.75998
539.00,22.82036
540.00,22.91036
541.00,22.96780
542.00,23.01009
543.00,23.06890
544.00,23.15743
545.00,23.22307
546.00,23.27731
547.00,23.37101
548.00,23.40212
549.00,23.51631
550.00,23.61266
551.00,23.64776
552.00,23.71990
553.00,23.82326
554.00,23.91609
555.00,24.02301
556.00,24.05980
557.00,24.12936
558.00,24.24743
559.00,24.30149
560.00,24.39077
561.00,24.48301
562.00,24.58497
563.00,24.67489
564.00,24.72113
565.00,24.79640
566.00,24.91384
567.00,24.99796
568.00,25.04289
569.00,25.18241
570.00,25.24314
571.00,25.33809
572.00,25.40971
573.00,25.49184
574.00,25.55562
575.00,25.61465
576.00,25.74927
577.00,25.82917
578.00,25.87418
579.00,25.99388
580.00,26.07250
581.00,26.12609
582.00,26.20567
583.00,26.25605
584.00,26.39091
585.00,26.49473
586.00,26.48683
587.00,26.58575
588.00,26.63930
589.00,26.72445
590.00,26.78419
591.00,26.86998
592.00,26.96723
593.00,26.93681
594.00,27.03070
595.00,27.09639
596.00,27.16801
597.00,27.24274
598.00,27.28426
599.00,27.33283
600.00,27.40688
601.00,27.45365
602.00,27.49684
603.00,27.54191
604.00,27.59388
605.00,27.63380
606.00,27.65352
607.00,27.72079
608.00,27.75816
609.00,27.76734
610.00,27.84275
611.00,27.85811
612.00,27.90804
613.00,27.97267
614.00,28.07828
615.00,28.05937
616.00,28.14970
617.00,28.11007
618.00,28.19501
619.00,28.26214
620.00,28.26153
621.00,28.34952
622.00,28.40252
623.00,28.42785
624.00,28.51557
625.00,28.52635
626.00,28.59588
627.00,28.68425
628.00,28.73499
629.00,28.79346
630.00,28.90326
631.00,28.92665
632.00,29.02045
633.00,29.12681
634.00,29.22750
635.00,29.34362
636.00,29.43096
637.00,29.56378
638.00,29.59867
639.00,29.76752
640.00,29.83184
641.00,29.97374
642.00,30.10850
643.00,30.21749
644.00,30.41858
645.00,30.46764
646.00,30.64251
647.00,30.81890
648.00,30.91252
649.00,31.00412
650.00,31.22341
651.00,31.35455
652.00,31.53407
653.00,31.57382
654.00,31.77885
655.00,31.92116
656.00,32.08331
657.00,32.17400
658.00,32.38092
659.00,32.44831
660.00,32.66071
661.00,32.71415
662.00,32.95039
663.00,33.14309
664.00,33.28873
665.00,33.37230
666.00,33.48606
667.00,33.67199
668.00,33.75367
669.00,33.92304
670.00,34.03658
671.00,34.18154
672.00,34.38239
673.00,34.48862
674.00,34.54057
675.00,34.73871
676.00,34.88280
677.00,35.07563
678.00,35.19245
679.00,35.33682
680.00,35.42472
681.00,35.61187
682.00,35.74653
683.00,35.90404
684.00,36.07357
685.00,36.23815
686.00,36.37870
687.00,36.49797
688.00,36.68484
689.00,36.88808
690.00,36.98989
691.00,37.14798
692.00,37.36234
693.00,37.47062
694.00,37.60355
695.00,37.77588
696.00,37.93167
697.00,38.14658
698.00,38.30658
699.00,38.33735
700.00,38.56078
701.00,38.85347
702.00,38.94600
703.00,39.13120
704.00,39.35709
705.00,39.48342
706.00,39.68463
707.00,39.89631
708.00,40.03422
709.00,40.15369
710.00,40.25663
711.00,40.55275
712.00,40.61937
713.00,40.90008
714.00,40.90893
715.00,41.32648
716.00,41.38573
717.00,41.52013
718.00,41.78625
719.00,41.76772
720.00,41.99856
721.00,42.19758
722.00,42.39095
723.00,42.39289
724.00,42.77641
725.00,42.99067
726.00,43.00004
727.00,43.18665
728.00,43.49358
729.00,43.69812
730.00,43.63253
731.00,43.84349
732.00,44.18892
733.00,44.22952
734.00,44.32134
735.00,44.55888
736.00,44.85213
737.00,44.85776
738.00,45.04753
739.00,45.19044
740.00,45.15350
741.00,45.40416
742.00,45.61298
743.00,45.87494
744.00,46.06555
745.00,46.11263
746.00,46.20413
747.00,46.24539
748.00,46.71688
749.00,46.76911
750.00,46.81808
751.00,46.92445
752.00,47.28075
753.00,47.42767
754.00,47.55615
755.00,47.46081
756.00,47.52833
757.00,47.85434
758.00,47.89456
759.00,48.03742
760.00,48.24786
761.00,48.37919
762.00,48.67033
763.00,48.65690
764.00,48.86123
765.00,49.09341
766.00,49.08696
767.00,49.35614
768.00,49.41687
769.00,49.60370
770.00,49.64480
771.00,49.82292
772.00,49.85436
773.00,49.87629
774.00,50.30089
775.00,50.07712
776.00,50.58654
777.00,50.46410
778.00,50.68253
779.00,51.02453
780.00,51.05984
781.00,51.45484
782.00,51.37459
783.00,51.25790
784.00,51.38607
785.00,51.64316
786.00,51.60700
787.00,51.58546
788.00,52.08755
789.00,52.47948
790.00,52.05953
791.00,52.26656
792.00,52.26233
793.00,52.33870
794.00,52.60957
795.00,52.91058
796.00,52.78522
797.00,53.12459
798.00,53.06612
799.00,53.28183
800.00,53.59040
801.00,53.51465
802.00,53.50795
803.00,53.37359
804.00,53.66958
805.00,54.21594
806.00,53.78690
807.00,53.75290
808.00,53.97047
809.00,54.17773
810.00,54.24876
811.00,54.03853
812.00,54.64227
813.00,54.47837
814.00,54.64798
815.00,54.74988
816.00,54.68270
817.00,54.76685
818.00,54.70582
819.00,55.02853
820.00,54.87567
821.00,54.63535
822.00,55.08409
823.00,54.94035
824.00,55.12317
825.00,55.08755
826.00,54.62996
827.00,54.57147
828.00,54.68740
829.00,54.94919
830.00,54.69129
831.00,54.33030
832.00,54.39523
833.00,54.70017
834.00,55.63208
835.00,54.99061
836.00,54.61223
837.00,54.14999
838.00,55.49183
839.00,55.09865
840.00,55.19222
841.00,54.50458
842.00,54.16404
843.00,55.01370
844.00,54.83688
845.00,53.92066
846.00,54.06125
847.00,54.03063
848.00,52.30744
849.00,52.49240
850.00,54.42595
851.00,54.37527
852.00,54.33494
853.00,52.46334
854.00,51.56412
855.00,52.63383
856.00,52.53259
857.00,53.11791
858.00,50.34872
859.00,52.47318
860.00,49.48806
861.00,50.88789
862.00,53.28718
863.00,50.90225
864.00,50.61910
865.00,50.86688
866.00,50.91587
867.00,49.12810
868.00,50.64697
869.00,51.70757
870.00,52.96441
871.00,47.87567
872.00,47.58267
873.00,47.73582
874.00,47.83957
875.00,46.83214
876.00,52.68393
877.00,48.24965
878.00,48.00380
879.00,47.81141
880.00,49.40186
881.00,51.85371
882.00,44.07624
883.00,50.97452
884.00,51.55966
885.00,52.11132
886.00,50.08994
887.00,45.21363
888.00,45.87027
889.00,49.37055
890.00,41.46230
891.00,52.81941
892.00,53.82075
893.00,47.88376
894.00,51.19293
895.00,43.05077
896.00,41.30520
897.00,46.91737
898.00,48.27356
899.00,49.66836
900.00,38.26004
