"SR_II - RawData"
"Wavelength nm.","R%"
400.00,11.14752
401.00,11.12089
402.00,11.23812
403.00,11.21111
404.00,11.18649
405.00,11.24944
406.00,11.26944
407.00,11.26405
408.00,11.34731
409.00,11.38893
410.00,11.38739
411.00,11.45821
412.00,11.56851
413.00,11.62487
414.00,11.65954
415.00,11.84866
416.00,12.02711
417.00,12.16253
418.00,12.38120
419.00,12.53519
420.00,12.64720
421.00,12.74413
422.00,12.85102
423.00,12.95686
424.00,12.95631
425.00,12.86788
426.00,12.66747
427.00,12.32500
428.00,12.00743
429.00,11.61770
430.00,11.29274
431.00,11.02197
432.00,10.76993
433.00,10.61979
434.00,10.47352
435.00,10.41535
436.00,10.35447
437.00,10.32405
438.00,10.30196
439.00,10.29024
440.00,10.28996
441.00,10.31301
442.00,10.31812
443.00,10.31429
444.00,10.32770
445.00,10.33813
446.00,10.38151
447.00,10.36796
448.00,10.37814
449.00,10.40389
450.00,10.44256
451.00,10.46045
452.00,10.48945
453.00,10.51121
454.00,10.54151
455.00,10.54539
456.00,10.61483
457.00,10.62442
458.00,10.65279
459.00,10.67554
460.00,10.73609
461.00,10.74240
462.00,10.77104
463.00,10.78710
464.00,10.81909
465.00,10.85911
466.00,10.89489
467.00,10.94050
468.00,10.93529
469.00,10.97464
470.00,11.00244
471.00,11.05954
472.00,11.07259
473.00,11.10242
474.00,11.10077
475.00,11.14949
476.00,11.18964
477.00,11.23522
478.00,11.23860
479.00,11.29136
480.00,11.31704
481.00,11.34470
482.00,11.40433
483.00,11.40488
484.00,11.47561
485.00,11.47875
486.00,11.56424
487.00,11.60604
488.00,11.59406
489.00,11.63941
490.00,11.70390
491.00,11.70160
492.00,11.77093
493.00,11.80668
494.00,11.83490
495.00,11.88513
496.00,11.92593
497.00,11.93791
498.00,11.99551
499.00,12.03096
500.00,12.06022
501.00,12.12708
502.00,12.14476
503.00,12.19338
504.00,12.24465
505.00,12.25292
506.00,12.31218
507.00,12.36529
508.00,12.39768
509.00,12.45165
510.00,12.50748
511.00,12.55863
512.00,12.58025
513.00,12.63144
514.00,12.66654
515.00,12.71683
516.00,12.77301
517.00,12.79887
518.00,12.83887
519.00,12.87975
520.00,12.92302
521.00,12.95778
522.00,13.03264
523.00,13.10278
524.00,13.12543
525.00,13.17100
526.00,13.23798
527.00,13.25655
528.00,13.32038
529.00,13.34925
530.00,13.41899
531.00,13.48001
532.00,13.51079
533.00,13.59820
534.00,13.63190
535.00,13.66114
536.00,13.73491
537.00,13.81460
538.00,13.86483
539.00,13.91878
540.00,13.98736
541.00,14.03433
542.00,14.07844
543.00,14.15364
544.00,14.20619
545.00,14.29978
546.00,14.36851
547.00,14.43214
548.00,14.50769
549.00,14.55099
550.00,14.62502
551.00,14.71297
552.00,14.77613
553.00,14.85475
554.00,14.92237
555.00,15.05812
556.00,15.08682
557.00,15.18863
558.00,15.27112
559.00,15.34608
560.00,15.41765
561.00,15.49343
562.00,15.58301
563.00,15.67724
564.00,15.78430
565.00,15.85317
566.00,15.93859
567.00,16.08937
568.00,16.14919
569.00,16.20461
570.00,16.31942
571.00,16.42746
572.00,16.50203
573.00,16.57329
574.00,16.69130
575.00,16.74826
576.00,16.88081
577.00,16.96606
578.00,17.06920
579.00,17.17076
580.00,17.26408
581.00,17.33944
582.00,17.47584
583.00,17.53034
584.00,17.64288
585.00,17.72328
586.00,17.82472
587.00,17.95382
588.00,18.01323
589.00,18.11113
590.00,18.22716
591.00,18.32484
592.00,18.41037
593.00,18.52623
594.00,18.59098
595.00,18.69964
596.00,18.77515
597.00,18.87513
598.00,18.96835
599.00,19.06362
600.00,19.11867
601.00,19.21269
602.00,19.30307
603.00,19.42527
604.00,19.45965
605.00,19.57487
606.00,19.63551
607.00,19.67828
608.00,19.80929
609.00,19.82531
610.00,19.92446
611.00,19.99189
612.00,20.08818
613.00,20.13165
614.00,20.21871
615.00,20.30556
616.00,20.34804
617.00,20.43808
618.00,20.53287
619.00,20.62020
620.00,20.65468
621.00,20.76637
622.00,20.83494
623.00,20.89990
624.00,20.98376
625.00,21.08237
626.00,21.17469
627.00,21.25156
628.00,21.36336
629.00,21.47712
630.00,21.54107
631.00,21.65244
632.00,21.75349
633.00,21.85372
634.00,22.00616
635.00,22.06427
636.00,22.21503
637.00,22.36440
638.00,22.46850
639.00,22.63828
640.00,22.79279
641.00,22.89470
642.00,23.03268
643.00,23.17927
644.00,23.34406
645.00,23.55383
646.00,23.68631
647.00,23.86337
648.00,23.99502
649.00,24.18213
650.00,24.34347
651.00,24.52527
652.00,24.67526
653.00,24.85057
654.00,24.99455
655.00,25.12846
656.00,25.31243
657.00,25.40895
658.00,25.60124
659.00,25.77556
660.00,25.94752
661.00,26.12324
662.00,26.26009
663.00,26.42671
664.00,26.53543
665.00,26.69904
666.00,26.80361
667.00,26.94000
668.00,27.05999
669.00,27.21136
670.00,27.35684
671.00,27.46389
672.00,27.55319
673.00,27.72308
674.00,27.81233
675.00,27.89579
676.00,28.02311
677.00,28.09784
678.00,28.15765
679.00,28.39554
680.00,28.44519
681.00,28.52533
682.00,28.66713
683.00,28.73251
684.00,28.87766
685.00,29.03710
686.00,29.12319
687.00,29.18473
688.00,29.28810
689.00,29.37593
690.00,29.49694
691.00,29.63721
692.00,29.78534
693.00,29.90349
694.00,30.08349
695.00,30.13534
696.00,30.24319
697.00,30.39384
698.00,30.61110
699.00,30.65999
700.00,30.83431
701.00,31.00045
702.00,31.15659
703.00,31.23505
704.00,31.41580
705.00,31.63614
706.00,31.74387
707.00,31.88445
708.00,32.16430
709.00,32.26053
710.00,32.37463
711.00,32.57227
712.00,32.69910
713.00,32.91325
714.00,33.12687
715.00,33.23475
716.00,33.38516
717.00,33.63007
718.00,33.67102
719.00,33.82418
720.00,34.13519
721.00,34.19913
722.00,34.27690
723.00,34.49352
724.00,34.64222
725.00,34.81694
726.00,34.92760
727.00,34.98812
728.00,35.09435
729.00,35.29382
730.00,35.38474
731.00,35.56188
732.00,35.67357
733.00,35.63729
734.00,35.74151
735.00,35.81862
736.00,35.86615
737.00,35.78028
738.00,36.02833
739.00,36.10354
740.00,36.13133
741.00,36.16396
742.00,36.12081
743.00,36.35668
744.00,36.37959
745.00,36.36748
746.00,36.37857
747.00,36.23351
748.00,36.23038
749.00,36.45889
750.00,36.37747
751.00,36.48578
752.00,36.38895
753.00,36.47111
754.00,36.29741
755.00,36.28999
756.00,36.37199
757.00,36.33049
758.00,36.18951
759.00,36.30548
760.00,36.27265
761.00,36.25894
762.00,36.29752
763.00,36.20112
764.00,36.18594
765.00,36.16551
766.00,36.19205
767.00,35.91280
768.00,36.09451
769.00,36.12787
770.00,35.90248
771.00,35.93878
772.00,35.85788
773.00,35.82287
774.00,35.86436
775.00,35.81733
776.00,35.88779
777.00,35.64977
778.00,35.71792
779.00,35.68005
780.00,35.44392
781.00,35.83392
782.00,35.52102
783.00,35.73241
784.00,35.60248
785.00,35.57142
786.00,35.75500
787.00,35.50331
788.00,35.43729
789.00,35.31435
790.00,35.46645
791.00,35.59454
792.00,35.38939
793.00,35.26143
794.00,35.28798
795.00,35.16771
796.00,35.34759
797.00,35.27831
798.00,35.23036
799.00,35.27791
800.00,35.30914
801.00,35.29750
802.00,35.13789
803.00,35.10970
804.00,35.10235
805.00,34.86176
806.00,34.96318
807.00,34.89579
808.00,35.09999
809.00,35.27343
810.00,34.85501
811.00,34.90227
812.00,34.97739
813.00,34.96995
814.00,34.79270
815.00,34.56696
816.00,34.57482
817.00,34.77394
818.00,34.57436
819.00,34.46098
820.00,34.37415
821.00,34.46732
822.00,34.76959
823.00,34.52240
824.00,34.21572
825.00,34.12848
826.00,34.11145
827.00,34.15555
828.00,33.88612
829.00,33.86056
830.00,33.81280
831.00,33.69052
832.00,33.85541
833.00,33.59890
834.00,33.35024
835.00,33.39510
836.00,33.28360
837.00,33.39266
838.00,33.21488
839.00,32.94378
840.00,33.31895
841.00,32.73740
842.00,33.04313
843.00,32.63616
844.00,33.21693
845.00,32.83915
846.00,32.52934
847.00,32.87481
848.00,32.25842
849.00,32.08291
850.00,32.23595
851.00,32.24550
852.00,31.87067
853.00,31.19867
854.00,32.51756
855.00,32.06125
856.00,32.38449
857.00,32.83356
858.00,34.00659
859.00,32.12810
860.00,31.59138
861.00,30.51016
862.00,32.02614
863.00,30.46916
864.00,31.07375
865.00,30.84413
866.00,31.26713
867.00,30.86161
868.00,31.24388
869.00,30.57878
870.00,30.11251
871.00,31.78430
872.00,31.50656
873.00,33.43624
874.00,29.46036
875.00,29.84860
876.00,32.43763
877.00,30.43139
878.00,33.97942
879.00,32.60693
880.00,28.17917
881.00,29.83282
882.00,31.82579
883.00,34.07340
884.00,24.08749
885.00,31.65446
886.00,32.77336
887.00,31.20907
888.00,33.66407
889.00,38.75557
890.00,30.87047
891.00,29.15582
892.00,35.01581
893.00,33.62281
894.00,31.38822
895.00,32.38148
896.00,34.42562
897.00,36.08743
898.00,24.71319
899.00,33.64982
900.00,39.63579
