"V - RawData"
"Wavelength nm.","T%"
400.00,0.24318
401.00,0.24700
402.00,0.25184
403.00,0.25162
404.00,0.25863
405.00,0.25992
406.00,0.26994
407.00,0.27479
408.00,0.28270
409.00,0.28561
410.00,0.29399
411.00,0.29203
412.00,0.30120
413.00,0.30369
414.00,0.31417
415.00,0.31606
416.00,0.32535
417.00,0.33288
418.00,0.33940
419.00,0.34287
420.00,0.35178
421.00,0.35922
422.00,0.36468
423.00,0.37185
424.00,0.37469
425.00,0.37756
426.00,0.38505
427.00,0.40034
428.00,0.39933
429.00,0.41089
430.00,0.41410
431.00,0.42049
432.00,0.42838
433.00,0.42728
434.00,0.43853
435.00,0.44516
436.00,0.45181
437.00,0.45583
438.00,0.45858
439.00,0.46973
440.00,0.47347
441.00,0.47657
442.00,0.48712
443.00,0.49357
444.00,0.49736
445.00,0.49919
446.00,0.50773
447.00,0.51250
448.00,0.51970
449.00,0.52765
450.00,0.53136
451.00,0.53621
452.00,0.53748
453.00,0.54130
454.00,0.54956
455.00,0.55600
456.00,0.55591
457.00,0.56504
458.00,0.56999
459.00,0.57472
460.00,0.57959
461.00,0.58145
462.00,0.59198
463.00,0.59395
464.00,0.59711
465.00,0.60019
466.00,0.60461
467.00,0.61563
468.00,0.62044
469.00,0.62209
470.00,0.62587
471.00,0.62862
472.00,0.63450
473.00,0.63959
474.00,0.63832
475.00,0.64442
476.00,0.64851
477.00,0.65534
478.00,0.65591
479.00,0.66406
480.00,0.65944
481.00,0.67071
482.00,0.67467
483.00,0.67442
484.00,0.68148
485.00,0.68414
486.00,0.68784
487.00,0.69184
488.00,0.69876
489.00,0.70184
490.00,0.70147
491.00,0.70939
492.00,0.71203
493.00,0.71646
494.00,0.71939
495.00,0.72078
496.00,0.72991
497.00,0.73136
498.00,0.73511
499.00,0.73677
500.00,0.74227
501.00,0.74687
502.00,0.74805
503.00,0.75620
504.00,0.75785
505.00,0.75900
506.00,0.77056
507.00,0.77287
508.00,0.78002
509.00,0.77971
510.00,0.78649
511.00,0.78990
512.00,0.79575
513.00,0.80764
514.00,0.80848
515.00,0.81739
516.00,0.81402
517.00,0.82737
518.00,0.83121
519.00,0.83693
520.00,0.84257
521.00,0.84773
522.00,0.85582
523.00,0.85891
524.00,0.87223
525.00,0.87283
526.00,0.88081
527.00,0.88449
528.00,0.89315
529.00,0.89483
530.00,0.91374
531.00,0.91493
532.00,0.92223
533.00,0.92861
534.00,0.94071
535.00,0.94338
536.00,0.94919
537.00,0.96037
538.00,0.96779
539.00,0.97094
540.00,0.97595
541.00,0.98273
542.00,0.99529
543.00,0.99747
544.00,1.00401
545.00,1.01360
546.00,1.01860
547.00,1.03161
548.00,1.03378
549.00,1.03857
550.00,1.04549
551.00,1.05501
552.00,1.05699
553.00,1.06850
554.00,1.06620
555.00,1.07719
556.00,1.08108
557.00,1.08640
558.00,1.09913
559.00,1.10085
560.00,1.11028
561.00,1.11700
562.00,1.11631
563.00,1.12419
564.00,1.12994
565.00,1.13811
566.00,1.13949
567.00,1.14860
568.00,1.15042
569.00,1.15843
570.00,1.16894
571.00,1.17215
572.00,1.17841
573.00,1.18707
574.00,1.19047
575.00,1.19950
576.00,1.20937
577.00,1.21491
578.00,1.22286
579.00,1.23065
580.00,1.23801
581.00,1.25212
582.00,1.25553
583.00,1.26978
584.00,1.27891
585.00,1.29307
586.00,1.30822
587.00,1.31314
588.00,1.32988
589.00,1.33858
590.00,1.36415
591.00,1.37599
592.00,1.39517
593.00,1.41323
594.00,1.43569
595.00,1.45593
596.00,1.48861
597.00,1.51406
598.00,1.54217
599.00,1.57663
600.00,1.61277
601.00,1.65294
602.00,1.69937
603.00,1.74797
604.00,1.79399
605.00,1.84979
606.00,1.90831
607.00,1.97566
608.00,2.04442
609.00,2.11581
610.00,2.19498
611.00,2.28866
612.00,2.38636
613.00,2.48342
614.00,2.60519
615.00,2.72518
616.00,2.85267
617.00,2.98217
618.00,3.13145
619.00,3.30223
620.00,3.46023
621.00,3.65485
622.00,3.83587
623.00,4.01296
624.00,4.21885
625.00,4.44095
626.00,4.65896
627.00,4.87031
628.00,5.10912
629.00,5.36277
630.00,5.60512
631.00,5.86911
632.00,6.13967
633.00,6.42959
634.00,6.70279
635.00,7.03359
636.00,7.33213
637.00,7.66366
638.00,7.98534
639.00,8.33729
640.00,8.71043
641.00,9.05438
642.00,9.41525
643.00,9.81341
644.00,10.17409
645.00,10.57427
646.00,10.96062
647.00,11.40232
648.00,11.82187
649.00,12.24567
650.00,12.69900
651.00,13.11139
652.00,13.56571
653.00,13.98700
654.00,14.42062
655.00,14.90251
656.00,15.39289
657.00,15.83271
658.00,16.30501
659.00,16.80325
660.00,17.22672
661.00,17.75724
662.00,18.21051
663.00,18.67769
664.00,19.10124
665.00,19.55993
666.00,20.00393
667.00,20.45319
668.00,20.90064
669.00,21.33965
670.00,21.67106
671.00,22.05784
672.00,22.48050
673.00,22.80768
674.00,23.14125
675.00,23.49671
676.00,23.82199
677.00,24.19204
678.00,24.47834
679.00,24.74553
680.00,25.00299
681.00,25.36149
682.00,25.58796
683.00,25.86772
684.00,26.19115
685.00,26.39813
686.00,26.64677
687.00,26.88292
688.00,27.09333
689.00,27.34951
690.00,27.49718
691.00,27.65783
692.00,27.84170
693.00,28.05840
694.00,28.18038
695.00,28.38505
696.00,28.46252
697.00,28.68044
698.00,28.84984
699.00,28.96630
700.00,29.12866
701.00,29.20661
702.00,29.30990
703.00,29.56946
704.00,29.60115
705.00,29.72520
706.00,29.85846
707.00,29.94851
708.00,30.02619
709.00,30.06993
710.00,30.32843
711.00,30.25078
712.00,30.45527
713.00,30.50623
714.00,30.66644
715.00,30.66120
716.00,30.78342
717.00,30.90312
718.00,30.94874
719.00,30.96147
720.00,31.09318
721.00,31.07387
722.00,31.20851
723.00,31.25216
724.00,31.33523
725.00,31.36289
726.00,31.52059
727.00,31.49204
728.00,31.62628
729.00,31.61427
730.00,31.73106
731.00,31.78500
732.00,31.80131
733.00,31.81477
734.00,32.02583
735.00,31.93441
736.00,32.07350
737.00,32.09632
738.00,32.22992
739.00,32.17805
740.00,32.12937
741.00,32.23992
742.00,32.28531
743.00,32.30575
744.00,32.37123
745.00,32.38069
746.00,32.38763
747.00,32.55081
748.00,32.51534
749.00,32.49710
750.00,32.52915
751.00,32.77075
752.00,32.67457
753.00,32.61457
754.00,32.82520
755.00,32.75432
756.00,32.89850
757.00,32.73382
758.00,32.94562
759.00,32.97291
760.00,32.94546
761.00,33.04560
762.00,33.17311
763.00,33.01778
764.00,33.21388
765.00,33.05537
766.00,33.25547
767.00,33.15859
768.00,33.29760
769.00,33.38208
770.00,33.39063
771.00,33.32766
772.00,33.16842
773.00,33.45988
774.00,33.43742
775.00,33.41048
776.00,33.47290
777.00,33.48932
778.00,33.45776
779.00,33.38164
780.00,33.49766
781.00,33.43736
782.00,33.40618
783.00,33.46148
784.00,33.74506
785.00,33.68050
786.00,33.63844
787.00,33.65678
788.00,33.50267
789.00,33.89125
790.00,33.75445
791.00,33.70960
792.00,33.71836
793.00,33.81180
794.00,33.94884
795.00,33.90051
796.00,33.91351
797.00,33.90481
798.00,34.00906
799.00,33.90377
800.00,33.90150
801.00,33.74178
802.00,34.04005
803.00,34.02708
804.00,34.14032
805.00,34.02877
806.00,34.12803
807.00,34.02604
808.00,34.03043
809.00,33.85116
810.00,34.11101
811.00,34.16772
812.00,33.95653
813.00,34.00082
814.00,33.86544
815.00,33.97976
816.00,34.09107
817.00,34.10400
818.00,34.13337
819.00,34.25595
820.00,34.22506
821.00,34.01868
822.00,34.12548
823.00,34.08117
824.00,34.15277
825.00,34.33758
826.00,34.18899
827.00,34.17848
828.00,34.33155
829.00,34.09927
830.00,34.39898
831.00,34.32266
832.00,34.61169
833.00,34.09867
834.00,34.20408
835.00,34.30938
836.00,34.51587
837.00,34.41946
838.00,34.18238
839.00,34.16544
840.00,34.42369
841.00,34.06294
842.00,34.63988
843.00,33.96586
844.00,34.25192
845.00,33.71705
846.00,34.22008
847.00,34.90330
848.00,34.62856
849.00,34.25404
850.00,34.00089
851.00,34.24919
852.00,34.64544
853.00,34.05519
854.00,34.82763
855.00,34.68977
856.00,34.54705
857.00,32.86113
858.00,33.87676
859.00,34.99638
860.00,34.47734
861.00,35.21508
862.00,33.84999
863.00,35.29700
864.00,34.70353
865.00,34.66483
866.00,35.43602
867.00,32.73686
868.00,34.76312
869.00,35.37470
870.00,33.94832
871.00,34.51048
872.00,32.61038
873.00,36.43305
874.00,35.59543
875.00,34.08139
876.00,35.32980
877.00,32.73841
878.00,37.21271
879.00,34.84328
880.00,33.41528
881.00,36.58642
882.00,33.47454
883.00,34.74566
884.00,34.36777
885.00,32.14962
886.00,33.46515
887.00,32.31877
888.00,33.37651
889.00,36.08914
890.00,33.99166
891.00,39.12625
892.00,34.85666
893.00,32.78227
894.00,35.36466
895.00,33.26624
896.00,37.25959
897.00,30.80753
898.00,29.60373
899.00,33.58034
900.00,35.27879
