"SR_VII2 - RawData"
"Wavelength nm.","R%"
400.00,14.75258
401.00,14.78299
402.00,14.72016
403.00,14.70013
404.00,14.75580
405.00,14.71795
406.00,14.71341
407.00,14.72287
408.00,14.70514
409.00,14.63901
410.00,14.69260
411.00,14.69454
412.00,14.66828
413.00,14.66631
414.00,14.65696
415.00,14.64212
416.00,14.64071
417.00,14.68696
418.00,14.65250
419.00,14.64347
420.00,14.64915
421.00,14.67213
422.00,14.65604
423.00,14.65813
424.00,14.66316
425.00,14.67358
426.00,14.65018
427.00,14.64773
428.00,14.68384
429.00,14.68680
430.00,14.69966
431.00,14.74128
432.00,14.71320
433.00,14.74895
434.00,14.77533
435.00,14.84039
436.00,14.85686
437.00,14.88788
438.00,14.89562
439.00,14.88692
440.00,14.85876
441.00,14.84013
442.00,14.79930
443.00,14.78372
444.00,14.76421
445.00,14.75629
446.00,14.72502
447.00,14.71607
448.00,14.74379
449.00,14.68857
450.00,14.68953
451.00,14.67092
452.00,14.67558
453.00,14.64136
454.00,14.66406
455.00,14.62611
456.00,14.62895
457.00,14.63011
458.00,14.60692
459.00,14.59933
460.00,14.60252
461.00,14.61803
462.00,14.60502
463.00,14.59064
464.00,14.59412
465.00,14.58199
466.00,14.59161
467.00,14.56232
468.00,14.55664
469.00,14.55698
470.00,14.53027
471.00,14.53326
472.00,14.52785
473.00,14.54545
474.00,14.51740
475.00,14.49922
476.00,14.52346
477.00,14.50802
478.00,14.50621
479.00,14.51598
480.00,14.51699
481.00,14.49886
482.00,14.49689
483.00,14.52104
484.00,14.51079
485.00,14.50440
486.00,14.50083
487.00,14.50474
488.00,14.50071
489.00,14.49749
490.00,14.51143
491.00,14.51199
492.00,14.51432
493.00,14.53093
494.00,14.50650
495.00,14.52131
496.00,14.51577
497.00,14.53490
498.00,14.55139
499.00,14.54415
500.00,14.55251
501.00,14.53908
502.00,14.55230
503.00,14.54743
504.00,14.57307
505.00,14.57563
506.00,14.57467
507.00,14.56735
508.00,14.57477
509.00,14.56485
510.00,14.60744
511.00,14.62450
512.00,14.60786
513.00,14.59007
514.00,14.60745
515.00,14.63043
516.00,14.64200
517.00,14.64426
518.00,14.66351
519.00,14.67259
520.00,14.65010
521.00,14.69384
522.00,14.67315
523.00,14.69616
524.00,14.69265
525.00,14.72199
526.00,14.72175
527.00,14.74652
528.00,14.74501
529.00,14.74297
530.00,14.75890
531.00,14.77025
532.00,14.79948
533.00,14.78956
534.00,14.80392
535.00,14.81953
536.00,14.82703
537.00,14.81078
538.00,14.84636
539.00,14.85683
540.00,14.87904
541.00,14.89885
542.00,14.90371
543.00,14.92934
544.00,14.93232
545.00,14.93781
546.00,14.96270
547.00,14.96748
548.00,14.98969
549.00,15.02274
550.00,15.07137
551.00,15.07190
552.00,15.07766
553.00,15.11752
554.00,15.13488
555.00,15.18337
556.00,15.17901
557.00,15.23173
558.00,15.24084
559.00,15.27517
560.00,15.30643
561.00,15.31605
562.00,15.35276
563.00,15.42224
564.00,15.42564
565.00,15.47918
566.00,15.50060
567.00,15.52101
568.00,15.56587
569.00,15.60663
570.00,15.65957
571.00,15.66243
572.00,15.69804
573.00,15.75213
574.00,15.76956
575.00,15.81428
576.00,15.86807
577.00,15.91781
578.00,15.93672
579.00,15.96503
580.00,16.01495
581.00,16.08732
582.00,16.09988
583.00,16.14553
584.00,16.17892
585.00,16.23459
586.00,16.28651
587.00,16.30847
588.00,16.35738
589.00,16.39244
590.00,16.44752
591.00,16.48294
592.00,16.52881
593.00,16.58841
594.00,16.64020
595.00,16.66941
596.00,16.73247
597.00,16.76304
598.00,16.85321
599.00,16.88035
600.00,16.93320
601.00,16.96851
602.00,17.03102
603.00,17.09754
604.00,17.15909
605.00,17.22607
606.00,17.25876
607.00,17.34478
608.00,17.38856
609.00,17.44380
610.00,17.49603
611.00,17.59029
612.00,17.64813
613.00,17.71994
614.00,17.79957
615.00,17.88538
616.00,17.96322
617.00,18.04214
618.00,18.09878
619.00,18.19004
620.00,18.29622
621.00,18.37061
622.00,18.45237
623.00,18.57428
624.00,18.67311
625.00,18.75912
626.00,18.89061
627.00,18.98401
628.00,19.10725
629.00,19.20118
630.00,19.33851
631.00,19.39894
632.00,19.55626
633.00,19.67896
634.00,19.80644
635.00,19.91266
636.00,20.07270
637.00,20.21258
638.00,20.33537
639.00,20.47903
640.00,20.63795
641.00,20.77453
642.00,20.94122
643.00,21.12081
644.00,21.25183
645.00,21.40507
646.00,21.59403
647.00,21.75224
648.00,21.90915
649.00,22.05674
650.00,22.22032
651.00,22.38562
652.00,22.51423
653.00,22.70021
654.00,22.82875
655.00,23.03047
656.00,23.14263
657.00,23.32598
658.00,23.46880
659.00,23.62685
660.00,23.78165
661.00,23.93343
662.00,24.09764
663.00,24.21810
664.00,24.39438
665.00,24.47362
666.00,24.63584
667.00,24.75782
668.00,24.85817
669.00,25.02376
670.00,25.16976
671.00,25.20617
672.00,25.33990
673.00,25.47710
674.00,25.57078
675.00,25.67773
676.00,25.77973
677.00,25.87862
678.00,25.92942
679.00,26.04982
680.00,26.15116
681.00,26.19479
682.00,26.29623
683.00,26.40899
684.00,26.46451
685.00,26.56709
686.00,26.57301
687.00,26.68132
688.00,26.80076
689.00,26.78702
690.00,26.89659
691.00,26.92730
692.00,27.04770
693.00,27.00419
694.00,27.10226
695.00,27.23207
696.00,27.22891
697.00,27.25534
698.00,27.36587
699.00,27.33269
700.00,27.41155
701.00,27.46884
702.00,27.53441
703.00,27.46192
704.00,27.57324
705.00,27.59590
706.00,27.68970
707.00,27.72357
708.00,27.67988
709.00,27.72754
710.00,27.66015
711.00,27.73751
712.00,27.87465
713.00,27.86869
714.00,27.97717
715.00,27.80633
716.00,27.88244
717.00,27.93355
718.00,27.94042
719.00,27.97956
720.00,27.92388
721.00,27.98017
722.00,27.99091
723.00,27.97382
724.00,27.97661
725.00,28.09571
726.00,27.93342
727.00,27.95735
728.00,28.10542
729.00,27.97838
730.00,27.98305
731.00,28.03939
732.00,28.01546
733.00,27.98653
734.00,28.01503
735.00,27.97067
736.00,28.00333
737.00,28.01096
738.00,27.95508
739.00,27.92916
740.00,28.00317
741.00,27.93752
742.00,27.95348
743.00,28.00180
744.00,27.94718
745.00,27.87927
746.00,27.92047
747.00,27.92594
748.00,27.92162
749.00,27.91948
750.00,27.84087
751.00,27.93012
752.00,27.85803
753.00,27.87100
754.00,27.88477
755.00,27.86388
756.00,27.81672
757.00,27.87518
758.00,27.74487
759.00,27.80330
760.00,27.78729
761.00,27.93870
762.00,27.73266
763.00,27.83307
764.00,27.81049
765.00,27.71180
766.00,27.70821
767.00,27.74926
768.00,27.78257
769.00,27.92931
770.00,27.73966
771.00,27.66400
772.00,27.85634
773.00,27.70503
774.00,27.73984
775.00,27.73143
776.00,27.77594
777.00,27.83172
778.00,27.73789
779.00,27.78416
780.00,27.70833
781.00,27.80538
782.00,27.66763
783.00,27.77778
784.00,27.80622
785.00,27.83740
786.00,27.66227
787.00,27.74614
788.00,27.79656
789.00,27.83493
790.00,27.86233
791.00,27.82473
792.00,27.90239
793.00,27.93170
794.00,27.95073
795.00,27.81733
796.00,27.66924
797.00,27.85427
798.00,27.98802
799.00,27.85534
800.00,27.83627
801.00,27.73283
802.00,27.84540
803.00,27.88664
804.00,27.77336
805.00,27.77085
806.00,27.90377
807.00,27.88817
808.00,27.95935
809.00,27.89815
810.00,27.87627
811.00,27.78224
812.00,28.02581
813.00,27.95998
814.00,27.71966
815.00,27.96132
816.00,27.91389
817.00,27.77265
818.00,27.83630
819.00,27.93333
820.00,27.80980
821.00,27.52870
822.00,27.89738
823.00,27.56505
824.00,27.57399
825.00,27.54852
826.00,27.45160
827.00,27.57145
828.00,27.50682
829.00,27.49834
830.00,27.56189
831.00,27.35439
832.00,27.29650
833.00,27.69788
834.00,27.39536
835.00,27.34856
836.00,27.30912
837.00,27.27494
838.00,27.48546
839.00,27.44245
840.00,27.31152
841.00,26.85824
842.00,27.18739
843.00,26.97248
844.00,26.95077
845.00,26.54693
846.00,26.72705
847.00,26.71049
848.00,26.81286
849.00,26.72498
850.00,26.54818
851.00,26.70837
852.00,26.81985
853.00,26.66430
854.00,26.59695
855.00,26.55829
856.00,25.86742
857.00,26.47420
858.00,25.73174
859.00,26.34107
860.00,26.07723
861.00,25.66981
862.00,26.19387
863.00,26.61403
864.00,26.36410
865.00,25.65193
866.00,26.20969
867.00,24.48791
868.00,25.75789
869.00,25.49311
870.00,25.72931
871.00,25.82994
872.00,25.90966
873.00,24.47594
874.00,26.84923
875.00,26.61141
876.00,25.13299
877.00,25.38967
878.00,26.08262
879.00,25.31681
880.00,22.88404
881.00,23.55181
882.00,25.39284
883.00,26.63397
884.00,25.21613
885.00,22.95865
886.00,25.64352
887.00,26.52792
888.00,24.94995
889.00,24.95852
890.00,25.45762
891.00,27.64656
892.00,25.16965
893.00,23.45890
894.00,22.73165
895.00,19.53296
896.00,21.87081
897.00,24.40885
898.00,20.11546
899.00,24.14289
900.00,24.06387
